3997.26563,0.00863
3995.50781,0.00729
3993.75000,0.00615
3991.99219,0.00624
3990.23438,0.00675
3988.47656,0.00634
3986.71875,0.00588
3984.96094,0.00583
3983.20313,0.00516
3981.44531,0.00477
3979.68750,0.00614
3977.92969,0.00801
3976.17188,0.00858
3974.41406,0.00795
3972.65625,0.00658
3970.89844,0.00428
3969.14063,0.00250
3967.38281,0.00288
3965.62500,0.00371
3963.86719,0.00286
3962.10938,0.00139
3960.35156,0.00151
3958.59375,0.00360
3956.83594,0.00641
3955.07813,0.00844
3953.32031,0.00904
3951.56250,0.00867
3949.80469,0.00801
3948.04688,0.00703
3946.28906,0.00583
3944.53125,0.00473
3942.77344,0.00329
3941.01563,0.00134
3939.25781,0.00035
3937.50000,0.00212
3935.74219,0.00596
3933.98438,0.00843
3932.22656,0.00754
3930.46875,0.00536
3928.71094,0.00433
3926.95313,0.00400
3925.19531,0.00372
3923.43750,0.00407
3921.67969,0.00506
3919.92188,0.00565
3918.16406,0.00583
3916.40625,0.00624
3914.64844,0.00666
3912.89063,0.00755
3911.13281,0.00956
3909.37500,0.01127
3907.61719,0.01089
3905.85938,0.00869
3904.10156,0.00645
3902.34375,0.00615
3900.58594,0.00758
3898.82813,0.00873
3897.07031,0.00897
3895.31250,0.00856
3893.55469,0.00737
3891.79688,0.00572
3890.03906,0.00509
3888.28125,0.00599
3886.52344,0.00692
3884.76563,0.00610
3883.00781,0.00430
3881.25000,0.00343
3879.49219,0.00344
3877.73438,0.00380
3875.97656,0.00452
3874.21875,0.00524
3872.46094,0.00479
3870.70313,0.00249
3868.94531,-0.00036
3867.18750,-0.00150
3865.42969,-0.00034
3863.67188,0.00263
3861.91406,0.00547
3860.15625,0.00665
3858.39844,0.00646
3856.64063,0.00562
3854.88281,0.00512
3853.12500,0.00484
3851.36719,0.00354
3849.60938,0.00284
3847.85156,0.00303
3846.09375,0.00276
3844.33594,0.00184
3842.57813,0.00195
3840.82031,0.00277
3839.06250,0.00117
3837.30469,-0.00155
3835.54688,-0.00042
3833.78906,0.00318
3832.03125,0.00547
3830.27344,0.00530
3828.51563,0.00412
3826.75781,0.00374
3825.00000,0.00472
3823.24219,0.00605
3821.48438,0.00590
3819.72656,0.00400
3817.96875,0.00275
3816.21094,0.00266
3814.45313,0.00387
3812.69531,0.00614
3810.93750,0.00777
3809.17969,0.00728
3807.42188,0.00444
3805.66406,0.00202
3803.90625,0.00292
3802.14844,0.00589
3800.39063,0.00756
3798.63281,0.00664
3796.87500,0.00533
3795.11719,0.00475
3793.35938,0.00393
3791.60156,0.00214
3789.84375,0.00100
3788.08594,0.00228
3786.32813,0.00456
3784.57031,0.00516
3782.81250,0.00459
3781.05469,0.00478
3779.29688,0.00481
3777.53906,0.00366
3775.78125,0.00346
3774.02344,0.00542
3772.26563,0.00761
3770.50781,0.00720
3768.75000,0.00441
3766.99219,0.00317
3765.23438,0.00465
3763.47656,0.00582
3761.71875,0.00450
3759.96094,0.00170
3758.20313,0.00041
3756.44531,0.00243
3754.68750,0.00565
3752.92969,0.00742
3751.17188,0.00573
3749.41406,0.00219
3747.65625,0.00132
3745.89844,0.00203
3744.14063,0.00224
3742.38281,0.00287
3740.62500,0.00444
3738.86719,0.00586
3737.10938,0.00658
3735.35156,0.00589
3733.59375,0.00353
3731.83594,0.00125
3730.07813,0.00001
3728.32031,-0.00005
3726.56250,0.00062
3724.80469,0.00072
3723.04688,0.00029
3721.28906,0.00105
3719.53125,0.00264
3717.77344,0.00325
3716.01563,0.00294
3714.25781,0.00215
3712.50000,-0.00018
3710.74219,-0.00252
3708.98438,-0.00031
3707.22656,0.00376
3705.46875,0.00579
3703.71094,0.00559
3701.95313,0.00401
3700.19531,0.00211
3698.43750,0.00143
3696.67969,0.00314
3694.92188,0.00659
3693.16406,0.00922
3691.40625,0.00856
3689.64844,0.00407
3687.89063,0.00108
3686.13281,0.00249
3684.37500,0.00407
3682.61719,0.00518
3680.85938,0.00762
3679.10156,0.01100
3677.34375,0.01341
3675.58594,0.01187
3673.82813,0.00581
3672.07031,0.00116
3670.31250,-0.00023
3668.55469,0.00053
3666.79688,0.00189
3665.03906,0.00330
3663.28125,0.00422
3661.52344,0.00393
3659.76563,0.00324
3658.00781,0.00378
3656.25000,0.00603
3654.49219,0.00913
3652.73438,0.01197
3650.97656,0.01343
3649.21875,0.01056
3647.46094,0.00410
3645.70313,0.00120
3643.94531,0.00218
3642.18750,0.00518
3640.42969,0.00895
3638.67188,0.01119
3636.91406,0.01024
3635.15625,0.00806
3633.39844,0.00795
3631.64063,0.00937
3629.88281,0.00865
3628.12500,0.00467
3626.36719,0.00202
3624.60938,0.00222
3622.85156,0.00379
3621.09375,0.00518
3619.33594,0.00474
3617.57813,0.00400
3615.82031,0.00574
3614.06250,0.00837
3612.30469,0.00891
3610.54688,0.00703
3608.78906,0.00459
3607.03125,0.00375
3605.27344,0.00515
3603.51563,0.00667
3601.75781,0.00667
3600.00000,0.00525
3598.24219,0.00391
3596.48438,0.00454
3594.72656,0.00712
3592.96875,0.00916
3591.21094,0.00948
3589.45313,0.00946
3587.69531,0.01062
3585.93750,0.01183
3584.17969,0.01073
3582.42188,0.00885
3580.66406,0.00849
3578.90625,0.00920
3577.14844,0.00900
3575.39063,0.00745
3573.63281,0.00563
3571.87500,0.00433
3570.11719,0.00333
3568.35938,0.00240
3566.60156,0.00279
3564.84375,0.00498
3563.08594,0.00649
3561.32813,0.00600
3559.57031,0.00424
3557.81250,0.00335
3556.05469,0.00448
3554.29688,0.00588
3552.53906,0.00630
3550.78125,0.00721
3549.02344,0.00861
3547.26563,0.00867
3545.50781,0.00748
3543.75000,0.00611
3541.99219,0.00456
3540.23438,0.00280
3538.47656,0.00142
3536.71875,0.00102
3534.96094,0.00191
3533.20313,0.00451
3531.44531,0.00838
3529.68750,0.01077
3527.92969,0.00979
3526.17188,0.00765
3524.41406,0.00647
3522.65625,0.00571
3520.89844,0.00550
3519.14063,0.00678
3517.38281,0.00805
3515.62500,0.00689
3513.86719,0.00450
3512.10938,0.00351
3510.35156,0.00386
3508.59375,0.00525
3506.83594,0.00723
3505.07813,0.00795
3503.32031,0.00784
3501.56250,0.00813
3499.80469,0.00771
3498.04688,0.00686
3496.28906,0.00682
3494.53125,0.00690
3492.77344,0.00672
3491.01563,0.00709
3489.25781,0.00813
3487.50000,0.00894
3485.74219,0.00864
3483.98438,0.00777
3482.22656,0.00712
3480.46875,0.00608
3478.71094,0.00429
3476.95313,0.00263
3475.19531,0.00158
3473.43750,0.00085
3471.67969,0.00057
3469.92188,0.00201
3468.16406,0.00543
3466.40625,0.00839
3464.64844,0.00855
3462.89063,0.00624
3461.13281,0.00382
3459.37500,0.00372
3457.61719,0.00616
3455.85938,0.00870
3454.10156,0.00937
3452.34375,0.00854
3450.58594,0.00717
3448.82813,0.00590
3447.07031,0.00552
3445.31250,0.00651
3443.55469,0.00888
3441.79688,0.01190
3440.03906,0.01338
3438.28125,0.01211
3436.52344,0.01063
3434.76563,0.01146
3433.00781,0.01279
3431.25000,0.01178
3429.49219,0.00981
3427.73438,0.00946
3425.97656,0.00945
3424.21875,0.00821
3422.46094,0.00716
3420.70313,0.00711
3418.94531,0.00746
3417.18750,0.00829
3415.42969,0.00907
3413.67188,0.00919
3411.91406,0.00961
3410.15625,0.01042
3408.39844,0.00959
3406.64063,0.00701
3404.88281,0.00528
3403.12500,0.00544
3401.36719,0.00628
3399.60938,0.00727
3397.85156,0.00869
3396.09375,0.01004
3394.33594,0.01041
3392.57813,0.00980
3390.82031,0.00892
3389.06250,0.00839
3387.30469,0.00828
3385.54688,0.00797
3383.78906,0.00656
3382.03125,0.00465
3380.27344,0.00435
3378.51563,0.00633
3376.75781,0.00829
3375.00000,0.00768
3373.24219,0.00528
3371.48438,0.00406
3369.72656,0.00473
3367.96875,0.00535
3366.21094,0.00494
3364.45313,0.00479
3362.69531,0.00606
3360.93750,0.00766
3359.17969,0.00777
3357.42188,0.00685
3355.66406,0.00667
3353.90625,0.00756
3352.14844,0.00877
3350.39063,0.00942
3348.63281,0.00924
3346.87500,0.00900
3345.11719,0.00916
3343.35938,0.00988
3341.60156,0.01157
3339.84375,0.01251
3338.08594,0.01043
3336.32813,0.00687
3334.57031,0.00498
3332.81250,0.00531
3331.05469,0.00651
3329.29688,0.00692
3327.53906,0.00601
3325.78125,0.00531
3324.02344,0.00629
3322.26563,0.00812
3320.50781,0.00892
3318.75000,0.00800
3316.99219,0.00632
3315.23438,0.00540
3313.47656,0.00532
3311.71875,0.00475
3309.96094,0.00369
3308.20313,0.00340
3306.44531,0.00380
3304.68750,0.00484
3302.92969,0.00736
3301.17188,0.01025
3299.41406,0.01098
3297.65625,0.00928
3295.89844,0.00722
3294.14063,0.00648
3292.38281,0.00681
3290.62500,0.00751
3288.86719,0.00813
3287.10938,0.00732
3285.35156,0.00474
3283.59375,0.00325
3281.83594,0.00518
3280.07813,0.00858
3278.32031,0.01009
3276.56250,0.00955
3274.80469,0.00951
3273.04688,0.01054
3271.28906,0.01031
3269.53125,0.00849
3267.77344,0.00737
3266.01563,0.00750
3264.25781,0.00789
3262.50000,0.00869
3260.74219,0.00961
3258.98438,0.00915
3257.22656,0.00739
3255.46875,0.00613
3253.71094,0.00614
3251.95313,0.00658
3250.19531,0.00657
3248.43750,0.00593
3246.67969,0.00467
3244.92188,0.00368
3243.16406,0.00442
3241.40625,0.00604
3239.64844,0.00624
3237.89063,0.00503
3236.13281,0.00392
3234.37500,0.00322
3232.61719,0.00283
3230.85938,0.00337
3229.10156,0.00499
3227.34375,0.00664
3225.58594,0.00729
3223.82813,0.00699
3222.07031,0.00649
3220.31250,0.00644
3218.55469,0.00650
3216.79688,0.00616
3215.03906,0.00602
3213.28125,0.00682
3211.52344,0.00812
3209.76563,0.00921
3208.00781,0.00998
3206.25000,0.01018
3204.49219,0.00919
3202.73438,0.00744
3200.97656,0.00616
3199.21875,0.00537
3197.46094,0.00463
3195.70313,0.00481
3193.94531,0.00617
3192.18750,0.00733
3190.42969,0.00786
3188.67188,0.00854
3186.91406,0.00875
3185.15625,0.00762
3183.39844,0.00666
3181.64063,0.00754
3179.88281,0.00926
3178.12500,0.00991
3176.36719,0.00927
3174.60938,0.00833
3172.85156,0.00809
3171.09375,0.00895
3169.33594,0.01007
3167.57813,0.01034
3165.82031,0.00998
3164.06250,0.00933
3162.30469,0.00822
3160.54688,0.00733
3158.78906,0.00733
3157.03125,0.00785
3155.27344,0.00839
3153.51563,0.00840
3151.75781,0.00744
3150.00000,0.00598
3148.24219,0.00522
3146.48438,0.00544
3144.72656,0.00566
3142.96875,0.00576
3141.21094,0.00626
3139.45313,0.00649
3137.69531,0.00613
3135.93750,0.00632
3134.17969,0.00736
3132.42188,0.00828
3130.66406,0.00834
3128.90625,0.00748
3127.14844,0.00625
3125.39063,0.00539
3123.63281,0.00514
3121.87500,0.00549
3120.11719,0.00630
3118.35938,0.00677
3116.60156,0.00624
3114.84375,0.00556
3113.08594,0.00600
3111.32813,0.00766
3109.57031,0.00935
3107.81250,0.00994
3106.05469,0.00955
3104.29688,0.00895
3102.53906,0.00865
3100.78125,0.00888
3099.02344,0.00940
3097.26563,0.00947
3095.50781,0.00880
3093.75000,0.00814
3091.99219,0.00769
3090.23438,0.00697
3088.47656,0.00695
3086.71875,0.00856
3084.96094,0.01025
3083.20313,0.01027
3081.44531,0.00904
3079.68750,0.00817
3077.92969,0.00851
3076.17188,0.00905
3074.41406,0.00882
3072.65625,0.00863
3070.89844,0.00902
3069.14063,0.00918
3067.38281,0.00885
3065.62500,0.00848
3063.86719,0.00816
3062.10938,0.00797
3060.35156,0.00787
3058.59375,0.00762
3056.83594,0.00762
3055.07813,0.00827
3053.32031,0.00902
3051.56250,0.00921
3049.80469,0.00847
3048.04688,0.00707
3046.28906,0.00623
3044.53125,0.00644
3042.77344,0.00712
3041.01563,0.00804
3039.25781,0.00872
3037.50000,0.00846
3035.74219,0.00776
3033.98438,0.00758
3032.22656,0.00757
3030.46875,0.00688
3028.71094,0.00626
3026.95313,0.00713
3025.19531,0.00910
3023.43750,0.01050
3021.67969,0.01067
3019.92188,0.01009
3018.16406,0.00925
3016.40625,0.00841
3014.64844,0.00804
3012.89063,0.00853
3011.13281,0.00941
3009.37500,0.00985
3007.61719,0.00972
3005.85938,0.00954
3004.10156,0.00944
3002.34375,0.00923
3000.58594,0.00917
2998.82813,0.00951
2997.07031,0.01010
2995.31250,0.01068
2993.55469,0.01089
2991.79688,0.01050
2990.03906,0.01002
2988.28125,0.01010
2986.52344,0.01100
2984.76563,0.01241
2983.00781,0.01347
2981.25000,0.01353
2979.49219,0.01299
2977.73438,0.01259
2975.97656,0.01238
2974.21875,0.01224
2972.46094,0.01249
2970.70313,0.01315
2968.94531,0.01315
2967.18750,0.01226
2965.42969,0.01221
2963.67188,0.01339
2961.91406,0.01377
2960.15625,0.01272
2958.39844,0.01172
2956.64063,0.01167
2954.88281,0.01230
2953.12500,0.01273
2951.36719,0.01214
2949.60938,0.01079
2947.85156,0.00939
2946.09375,0.00823
2944.33594,0.00780
2942.57813,0.00852
2940.82031,0.00981
2939.06250,0.01073
2937.30469,0.01097
2935.54688,0.01052
2933.78906,0.00963
2932.03125,0.00935
2930.27344,0.01039
2928.51563,0.01160
2926.75781,0.01139
2925.00000,0.01054
2923.24219,0.01094
2921.48438,0.01198
2919.72656,0.01172
2917.96875,0.01035
2916.21094,0.00934
2914.45313,0.00916
2912.69531,0.00955
2910.93750,0.01019
2909.17969,0.01087
2907.42188,0.01144
2905.66406,0.01185
2903.90625,0.01205
2902.14844,0.01183
2900.39063,0.01148
2898.63281,0.01147
2896.87500,0.01155
2895.11719,0.01113
2893.35938,0.01042
2891.60156,0.01004
2889.84375,0.00981
2888.08594,0.00921
2886.32813,0.00898
2884.57031,0.00996
2882.81250,0.01123
2881.05469,0.01162
2879.29688,0.01135
2877.53906,0.01107
2875.78125,0.01113
2874.02344,0.01111
2872.26563,0.01034
2870.50781,0.00931
2868.75000,0.00864
2866.99219,0.00805
2865.23438,0.00778
2863.47656,0.00859
2861.71875,0.01000
2859.96094,0.01100
2858.20313,0.01151
2856.44531,0.01214
2854.68750,0.01270
2852.92969,0.01213
2851.17188,0.01035
2849.41406,0.00855
2847.65625,0.00769
2845.89844,0.00795
2844.14063,0.00886
2842.38281,0.00940
2840.62500,0.00908
2838.86719,0.00881
2837.10938,0.00960
2835.35156,0.01052
2833.59375,0.01007
2831.83594,0.00841
2830.07813,0.00686
2828.32031,0.00631
2826.56250,0.00651
2824.80469,0.00665
2823.04688,0.00661
2821.28906,0.00681
2819.53125,0.00746
2817.77344,0.00832
2816.01563,0.00830
2814.25781,0.00693
2812.50000,0.00562
2810.74219,0.00572
2808.98438,0.00668
2807.22656,0.00727
2805.46875,0.00743
2803.71094,0.00813
2801.95313,0.00949
2800.19531,0.01035
2798.43750,0.01022
2796.67969,0.00974
2794.92188,0.00909
2793.16406,0.00816
2791.40625,0.00744
2789.64844,0.00736
2787.89063,0.00755
2786.13281,0.00753
2784.37500,0.00755
2782.61719,0.00821
2780.85938,0.00944
2779.10156,0.01045
2777.34375,0.01060
2775.58594,0.00988
2773.82813,0.00902
2772.07031,0.00885
2770.31250,0.00912
2768.55469,0.00894
2766.79688,0.00815
2765.03906,0.00723
2763.28125,0.00652
2761.52344,0.00611
2759.76563,0.00599
2758.00781,0.00609
2756.25000,0.00625
2754.49219,0.00650
2752.73438,0.00696
2750.97656,0.00720
2749.21875,0.00689
2747.46094,0.00614
2745.70313,0.00515
2743.94531,0.00468
2742.18750,0.00538
2740.42969,0.00657
2738.67188,0.00718
2736.91406,0.00730
2735.15625,0.00748
2733.39844,0.00745
2731.64063,0.00697
2729.88281,0.00668
2728.12500,0.00705
2726.36719,0.00773
2724.60938,0.00810
2722.85156,0.00785
2721.09375,0.00751
2719.33594,0.00771
2717.57813,0.00826
2715.82031,0.00866
2714.06250,0.00850
2712.30469,0.00776
2710.54688,0.00692
2708.78906,0.00635
2707.03125,0.00623
2705.27344,0.00645
2703.51563,0.00627
2701.75781,0.00542
2700.00000,0.00482
2698.24219,0.00517
2696.48438,0.00619
2694.72656,0.00726
2692.96875,0.00794
2691.21094,0.00802
2689.45313,0.00780
2687.69531,0.00751
2685.93750,0.00700
2684.17969,0.00649
2682.42188,0.00640
2680.66406,0.00665
2678.90625,0.00690
2677.14844,0.00669
2675.39063,0.00615
2673.63281,0.00625
2671.87500,0.00699
2670.11719,0.00733
2668.35938,0.00714
2666.60156,0.00688
2664.84375,0.00660
2663.08594,0.00630
2661.32813,0.00616
2659.57031,0.00646
2657.81250,0.00730
2656.05469,0.00822
2654.29688,0.00849
2652.53906,0.00793
2650.78125,0.00710
2649.02344,0.00695
2647.26563,0.00772
2645.50781,0.00835
2643.75000,0.00802
2641.99219,0.00748
2640.23438,0.00749
2638.47656,0.00746
2636.71875,0.00686
2634.96094,0.00631
2633.20313,0.00632
2631.44531,0.00647
2629.68750,0.00641
2627.92969,0.00635
2626.17188,0.00676
2624.41406,0.00756
2622.65625,0.00799
2620.89844,0.00772
2619.14063,0.00741
2617.38281,0.00741
2615.62500,0.00734
2613.86719,0.00707
2612.10938,0.00683
2610.35156,0.00672
2608.59375,0.00692
2606.83594,0.00765
2605.07813,0.00845
2603.32031,0.00869
2601.56250,0.00845
2599.80469,0.00822
2598.04688,0.00807
2596.28906,0.00764
2594.53125,0.00686
2592.77344,0.00632
2591.01563,0.00633
2589.25781,0.00644
2587.50000,0.00636
2585.74219,0.00653
2583.98438,0.00705
2582.22656,0.00733
2580.46875,0.00719
2578.71094,0.00678
2576.95313,0.00613
2575.19531,0.00581
2573.43750,0.00617
2571.67969,0.00628
2569.92188,0.00547
2568.16406,0.00463
2566.40625,0.00480
2564.64844,0.00587
2562.89063,0.00726
2561.13281,0.00839
2559.37500,0.00881
2557.61719,0.00877
2555.85938,0.00883
2554.10156,0.00881
2552.34375,0.00854
2550.58594,0.00841
2548.82813,0.00843
2547.07031,0.00816
2545.31250,0.00766
2543.55469,0.00761
2541.79688,0.00820
2540.03906,0.00865
2538.28125,0.00837
2536.52344,0.00787
2534.76563,0.00797
2533.00781,0.00869
2531.25000,0.00901
2529.49219,0.00826
2527.73438,0.00712
2525.97656,0.00665
2524.21875,0.00693
2522.46094,0.00734
2520.70313,0.00761
2518.94531,0.00794
2517.18750,0.00818
2515.42969,0.00787
2513.67188,0.00727
2511.91406,0.00713
2510.15625,0.00737
2508.39844,0.00745
2506.64063,0.00777
2504.88281,0.00868
2503.12500,0.00905
2501.36719,0.00827
2499.60938,0.00762
2497.85156,0.00805
2496.09375,0.00877
2494.33594,0.00886
2492.57813,0.00837
2490.82031,0.00770
2489.06250,0.00709
2487.30469,0.00680
2485.54688,0.00700
2483.78906,0.00724
2482.03125,0.00731
2480.27344,0.00761
2478.51563,0.00800
2476.75781,0.00798
2475.00000,0.00783
2473.24219,0.00788
2471.48438,0.00801
2469.72656,0.00813
2467.96875,0.00792
2466.21094,0.00734
2464.45313,0.00694
2462.69531,0.00680
2460.93750,0.00660
2459.17969,0.00644
2457.42188,0.00664
2455.66406,0.00717
2453.90625,0.00758
2452.14844,0.00756
2450.39063,0.00741
2448.63281,0.00739
2446.87500,0.00741
2445.11719,0.00727
2443.35938,0.00691
2441.60156,0.00666
2439.84375,0.00697
2438.08594,0.00780
2436.32813,0.00850
2434.57031,0.00835
2432.81250,0.00758
2431.05469,0.00720
2429.29688,0.00749
2427.53906,0.00797
2425.78125,0.00844
2424.02344,0.00868
2422.26563,0.00835
2420.50781,0.00779
2418.75000,0.00756
2416.99219,0.00778
2415.23438,0.00817
2413.47656,0.00815
2411.71875,0.00767
2409.96094,0.00733
2408.20313,0.00748
2406.44531,0.00801
2404.68750,0.00851
2402.92969,0.00831
2401.17188,0.00753
2399.41406,0.00711
2397.65625,0.00720
2395.89844,0.00721
2394.14063,0.00708
2392.38281,0.00694
2390.62500,0.00681
2388.86719,0.00697
2387.10938,0.00760
2385.35156,0.00826
2383.59375,0.00839
2381.83594,0.00780
2380.07813,0.00677
2378.32031,0.00563
2376.56250,0.00443
2374.80469,0.00330
2373.04688,0.00244
2371.28906,0.00172
2369.53125,0.00107
2367.77344,0.00044
2366.01563,-0.00065
2364.25781,-0.00229
2362.50000,-0.00341
2360.74219,-0.00267
2358.98438,-0.00099
2357.22656,-0.00127
2355.46875,-0.00251
2353.71094,-0.00135
2351.95313,0.00080
2350.19531,0.00170
2348.43750,0.00173
2346.67969,0.00146
2344.92188,0.00104
2343.16406,0.00035
2341.40625,-0.00049
2339.64844,0.00061
2337.89063,0.00387
2336.13281,0.00581
2334.37500,0.00549
2332.61719,0.00473
2330.85938,0.00434
2329.10156,0.00523
2327.34375,0.00689
2325.58594,0.00659
2323.82813,0.00413
2322.07031,0.00209
2320.31250,0.00202
2318.55469,0.00376
2316.79688,0.00571
2315.03906,0.00591
2313.28125,0.00475
2311.52344,0.00423
2309.76563,0.00480
2308.00781,0.00531
2306.25000,0.00539
2304.49219,0.00554
2302.73438,0.00568
2300.97656,0.00540
2299.21875,0.00508
2297.46094,0.00531
2295.70313,0.00616
2293.94531,0.00741
2292.18750,0.00860
2290.42969,0.00913
2288.67188,0.00881
2286.91406,0.00809
2285.15625,0.00777
2283.39844,0.00800
2281.64063,0.00832
2279.88281,0.00860
2278.12500,0.00891
2276.36719,0.00928
2274.60938,0.00965
2272.85156,0.00970
2271.09375,0.00939
2269.33594,0.00902
2267.57813,0.00858
2265.82031,0.00802
2264.06250,0.00774
2262.30469,0.00817
2260.54688,0.00908
2258.78906,0.00965
2257.03125,0.00936
2255.27344,0.00864
2253.51563,0.00817
2251.75781,0.00800
2250.00000,0.00786
2248.24219,0.00767
2246.48438,0.00740
2244.72656,0.00702
2242.96875,0.00669
2241.21094,0.00690
2239.45313,0.00776
2237.69531,0.00849
2235.93750,0.00853
2234.17969,0.00830
2232.42188,0.00810
2230.66406,0.00773
2228.90625,0.00741
2227.14844,0.00766
2225.39063,0.00830
2223.63281,0.00875
2221.87500,0.00913
2220.11719,0.00980
2218.35938,0.01017
2216.60156,0.00967
2214.84375,0.00879
2213.08594,0.00807
2211.32813,0.00738
2209.57031,0.00679
2207.81250,0.00665
2206.05469,0.00687
2204.29688,0.00718
2202.53906,0.00740
2200.78125,0.00747
2199.02344,0.00752
2197.26563,0.00771
2195.50781,0.00788
2193.75000,0.00783
2191.99219,0.00772
2190.23438,0.00772
2188.47656,0.00788
2186.71875,0.00820
2184.96094,0.00852
2183.20313,0.00867
2181.44531,0.00858
2179.68750,0.00830
2177.92969,0.00789
2176.17188,0.00729
2174.41406,0.00657
2172.65625,0.00613
2170.89844,0.00628
2169.14063,0.00689
2167.38281,0.00754
2165.62500,0.00772
2163.86719,0.00737
2162.10938,0.00694
2160.35156,0.00710
2158.59375,0.00778
2156.83594,0.00819
2155.07813,0.00821
2153.32031,0.00852
2151.56250,0.00927
2149.80469,0.00990
2148.04688,0.00980
2146.28906,0.00924
2144.53125,0.00886
2142.77344,0.00833
2141.01563,0.00753
2139.25781,0.00749
2137.50000,0.00843
2135.74219,0.00908
2133.98438,0.00895
2132.22656,0.00872
2130.46875,0.00872
2128.71094,0.00874
2126.95313,0.00876
2125.19531,0.00864
2123.43750,0.00842
2121.67969,0.00857
2119.92188,0.00907
2118.16406,0.00934
2116.40625,0.00942
2114.64844,0.00961
2112.89063,0.00987
2111.13281,0.01024
2109.37500,0.01074
2107.61719,0.01092
2105.85938,0.01039
2104.10156,0.00952
2102.34375,0.00897
2100.58594,0.00887
2098.82813,0.00893
2097.07031,0.00900
2095.31250,0.00891
2093.55469,0.00882
2091.79688,0.00934
2090.03906,0.01022
2088.28125,0.01032
2086.52344,0.00955
2084.76563,0.00883
2083.00781,0.00872
2081.25000,0.00924
2079.49219,0.00978
2077.73438,0.00954
2075.97656,0.00874
2074.21875,0.00834
2072.46094,0.00859
2070.70313,0.00869
2068.94531,0.00815
2067.18750,0.00760
2065.42969,0.00768
2063.67188,0.00804
2061.91406,0.00802
2060.15625,0.00774
2058.39844,0.00785
2056.64063,0.00836
2054.88281,0.00867
2053.12500,0.00875
2051.36719,0.00882
2049.60938,0.00863
2047.85156,0.00833
2046.09375,0.00852
2044.33594,0.00928
2042.57813,0.00992
2040.82031,0.00973
2039.06250,0.00906
2037.30469,0.00891
2035.54688,0.00937
2033.78906,0.00962
2032.03125,0.00920
2030.27344,0.00845
2028.51563,0.00782
2026.75781,0.00743
2025.00000,0.00719
2023.24219,0.00727
2021.48438,0.00794
2019.72656,0.00901
2017.96875,0.00973
2016.21094,0.00947
2014.45313,0.00844
2012.69531,0.00756
2010.93750,0.00732
2009.17969,0.00739
2007.42188,0.00732
2005.66406,0.00715
2003.90625,0.00713
2002.14844,0.00742
2000.39063,0.00797
1998.63281,0.00870
1996.87500,0.00953
1995.11719,0.01006
1993.35938,0.00966
1991.60156,0.00830
1989.84375,0.00703
1988.08594,0.00704
1986.32813,0.00834
1984.57031,0.00966
1982.81250,0.00998
1981.05469,0.00968
1979.29688,0.00944
1977.53906,0.00913
1975.78125,0.00881
1974.02344,0.00907
1972.26563,0.01003
1970.50781,0.01078
1968.75000,0.01050
1966.99219,0.00960
1965.23438,0.00903
1963.47656,0.00906
1961.71875,0.00960
1959.96094,0.01043
1958.20313,0.01102
1956.44531,0.01124
1954.68750,0.01120
1952.92969,0.01068
1951.17188,0.00978
1949.41406,0.00940
1947.65625,0.00998
1945.89844,0.01079
1944.14063,0.01085
1942.38281,0.00986
1940.62500,0.00852
1938.86719,0.00790
1937.10938,0.00819
1935.35156,0.00870
1933.59375,0.00895
1931.83594,0.00909
1930.07813,0.00918
1928.32031,0.00903
1926.56250,0.00877
1924.80469,0.00885
1923.04688,0.00923
1921.28906,0.00923
1919.53125,0.00839
1917.77344,0.00734
1916.01563,0.00726
1914.25781,0.00794
1912.50000,0.00828
1910.74219,0.00802
1908.98438,0.00774
1907.22656,0.00813
1905.46875,0.00915
1903.71094,0.00991
1901.95313,0.00987
1900.19531,0.00942
1898.43750,0.00896
1896.67969,0.00844
1894.92188,0.00802
1893.16406,0.00799
1891.40625,0.00813
1889.64844,0.00836
1887.89063,0.00887
1886.13281,0.00932
1884.37500,0.00927
1882.61719,0.00875
1880.85938,0.00815
1879.10156,0.00787
1877.34375,0.00799
1875.58594,0.00824
1873.82813,0.00812
1872.07031,0.00739
1870.31250,0.00639
1868.55469,0.00575
1866.79688,0.00579
1865.03906,0.00624
1863.28125,0.00676
1861.52344,0.00742
1859.76563,0.00819
1858.00781,0.00860
1856.25000,0.00845
1854.49219,0.00817
1852.73438,0.00818
1850.97656,0.00845
1849.21875,0.00848
1847.46094,0.00798
1845.70313,0.00728
1843.94531,0.00710
1842.18750,0.00770
1840.42969,0.00848
1838.67188,0.00914
1836.91406,0.00982
1835.15625,0.01022
1833.39844,0.01001
1831.64063,0.00960
1829.88281,0.00948
1828.12500,0.00921
1826.36719,0.00867
1824.60938,0.00865
1822.85156,0.00924
1821.09375,0.00945
1819.33594,0.00903
1817.57813,0.00871
1815.82031,0.00862
1814.06250,0.00815
1812.30469,0.00733
1810.54688,0.00692
1808.78906,0.00739
1807.03125,0.00851
1805.27344,0.00951
1803.51563,0.00979
1801.75781,0.00947
1800.00000,0.00903
1798.24219,0.00851
1796.48438,0.00779
1794.72656,0.00727
1792.96875,0.00777
1791.21094,0.00876
1789.45313,0.00882
1787.69531,0.00858
1785.93750,0.00888
1784.17969,0.00932
1782.42188,0.00932
1780.66406,0.00866
1778.90625,0.00725
1777.14844,0.00569
1775.39063,0.00473
1773.63281,0.00465
1771.87500,0.00540
1770.11719,0.00608
1768.35938,0.00631
1766.60156,0.00673
1764.84375,0.00724
1763.08594,0.00712
1761.32813,0.00654
1759.57031,0.00630
1757.81250,0.00653
1756.05469,0.00717
1754.29688,0.00795
1752.53906,0.00863
1750.78125,0.00973
1749.02344,0.01188
1747.26563,0.01470
1745.50781,0.01804
1743.75000,0.02216
1741.99219,0.02716
1740.23438,0.03342
1738.47656,0.04032
1736.71875,0.04652
1734.96094,0.05329
1733.20313,0.06265
1731.44531,0.07231
1729.68750,0.08130
1727.92969,0.09016
1726.17188,0.09840
1724.41406,0.10687
1722.65625,0.11596
1720.89844,0.12440
1719.14063,0.13258
1717.38281,0.14173
1715.62500,0.14602
1713.86719,0.14091
1712.10938,0.13030
1710.35156,0.11686
1708.59375,0.10260
1706.83594,0.08898
1705.07813,0.07738
1703.32031,0.06924
1701.56250,0.06200
1699.80469,0.05305
1698.04688,0.04612
1696.28906,0.04220
1694.53125,0.03895
1692.77344,0.03647
1691.01563,0.03483
1689.25781,0.03430
1687.50000,0.03483
1685.74219,0.03487
1683.98438,0.03266
1682.22656,0.03002
1680.46875,0.02896
1678.71094,0.02856
1676.95313,0.02811
1675.19531,0.02701
1673.43750,0.02537
1671.67969,0.02420
1669.92188,0.02377
1668.16406,0.02342
1666.40625,0.02267
1664.64844,0.02167
1662.89063,0.02066
1661.13281,0.02024
1659.37500,0.02059
1657.61719,0.02089
1655.85938,0.02040
1654.10156,0.01893
1652.34375,0.01761
1650.58594,0.01799
1648.82813,0.01888
1647.07031,0.01893
1645.31250,0.01784
1643.55469,0.01712
1641.79688,0.01698
1640.03906,0.01678
1638.28125,0.01588
1636.52344,0.01451
1634.76563,0.01456
1633.00781,0.01555
1631.25000,0.01597
1629.49219,0.01619
1627.73438,0.01657
1625.97656,0.01664
1624.21875,0.01592
1622.46094,0.01503
1620.70313,0.01487
1618.94531,0.01527
1617.18750,0.01579
1615.42969,0.01642
1613.67188,0.01693
1611.91406,0.01680
1610.15625,0.01604
1608.39844,0.01525
1606.64063,0.01478
1604.88281,0.01447
1603.12500,0.01422
1601.36719,0.01393
1599.60938,0.01371
1597.85156,0.01375
1596.09375,0.01407
1594.33594,0.01442
1592.57813,0.01433
1590.82031,0.01369
1589.06250,0.01307
1587.30469,0.01315
1585.54688,0.01415
1583.78906,0.01576
1582.03125,0.01722
1580.27344,0.01781
1578.51563,0.01721
1576.75781,0.01545
1575.00000,0.01418
1573.24219,0.01462
1571.48438,0.01533
1569.72656,0.01530
1567.96875,0.01482
1566.21094,0.01458
1564.45313,0.01460
1562.69531,0.01494
1560.93750,0.01552
1559.17969,0.01505
1557.42188,0.01320
1555.66406,0.01315
1553.90625,0.01410
1552.14844,0.01458
1550.39063,0.01400
1548.63281,0.01293
1546.87500,0.01222
1545.11719,0.01194
1543.35938,0.01211
1541.60156,0.01287
1539.84375,0.01367
1538.08594,0.01440
1536.32813,0.01506
1534.57031,0.01485
1532.81250,0.01360
1531.05469,0.01297
1529.29688,0.01348
1527.53906,0.01410
1525.78125,0.01398
1524.02344,0.01329
1522.26563,0.01258
1520.50781,0.01208
1518.75000,0.01217
1516.99219,0.01293
1515.23438,0.01374
1513.47656,0.01416
1511.71875,0.01474
1509.96094,0.01627
1508.20313,0.01925
1506.44531,0.02256
1504.68750,0.02311
1502.92969,0.02210
1501.17188,0.02039
1499.41406,0.01796
1497.65625,0.01563
1495.89844,0.01434
1494.14063,0.01339
1492.38281,0.01219
1490.62500,0.01140
1488.86719,0.01199
1487.10938,0.01330
1485.35156,0.01413
1483.59375,0.01467
1481.83594,0.01541
1480.07813,0.01637
1478.32031,0.01744
1476.56250,0.01871
1474.80469,0.01995
1473.04688,0.02071
1471.28906,0.02119
1469.53125,0.02129
1467.77344,0.02068
1466.01563,0.01967
1464.25781,0.01892
1462.50000,0.01846
1460.74219,0.01792
1458.98438,0.01755
1457.22656,0.01791
1455.46875,0.01902
1453.71094,0.02007
1451.95313,0.02057
1450.19531,0.02027
1448.43750,0.01927
1446.67969,0.01833
1444.92188,0.01819
1443.16406,0.01856
1441.40625,0.01874
1439.64844,0.01863
1437.89063,0.01848
1436.13281,0.01790
1434.37500,0.01680
1432.61719,0.01592
1430.85938,0.01538
1429.10156,0.01492
1427.34375,0.01456
1425.58594,0.01433
1423.82813,0.01409
1422.07031,0.01393
1420.31250,0.01445
1418.55469,0.01688
1416.79688,0.02144
1415.03906,0.02694
1413.28125,0.03290
1411.52344,0.03848
1409.76563,0.04226
1408.00781,0.04315
1406.25000,0.04073
1404.49219,0.03589
1402.73438,0.03135
1400.97656,0.02832
1399.21875,0.02597
1397.46094,0.02389
1395.70313,0.02212
1393.94531,0.02080
1392.18750,0.02063
1390.42969,0.02154
1388.67188,0.02273
1386.91406,0.02328
1385.15625,0.02290
1383.39844,0.02230
1381.64063,0.02212
1379.88281,0.02211
1378.12500,0.02143
1376.36719,0.02021
1374.60938,0.01964
1372.85156,0.02029
1371.09375,0.02103
1369.33594,0.02097
1367.57813,0.02023
1365.82031,0.01926
1364.06250,0.01848
1362.30469,0.01818
1360.54688,0.01808
1358.78906,0.01784
1357.03125,0.01758
1355.27344,0.01731
1353.51563,0.01748
1351.75781,0.01897
1350.00000,0.02178
1348.24219,0.02541
1346.48438,0.03020
1344.72656,0.03654
1342.96875,0.04352
1341.21094,0.04942
1339.45313,0.05207
1337.69531,0.04994
1335.93750,0.04435
1334.17969,0.03767
1332.42188,0.03155
1330.66406,0.02682
1328.90625,0.02331
1327.14844,0.02062
1325.39063,0.01902
1323.63281,0.01882
1321.87500,0.01942
1320.11719,0.01991
1318.35938,0.01987
1316.60156,0.01951
1314.84375,0.01974
1313.08594,0.02113
1311.32813,0.02294
1309.57031,0.02435
1307.81250,0.02565
1306.05469,0.02718
1304.29688,0.02871
1302.53906,0.03026
1300.78125,0.03216
1299.02344,0.03455
1297.26563,0.03714
1295.50781,0.03963
1293.75000,0.04212
1291.99219,0.04488
1290.23438,0.04800
1288.47656,0.05139
1286.71875,0.05483
1284.96094,0.05811
1283.20313,0.06143
1281.44531,0.06511
1279.68750,0.06895
1277.92969,0.07248
1276.17188,0.07591
1274.41406,0.07988
1272.65625,0.08466
1270.89844,0.09006
1269.14063,0.09576
1267.38281,0.10150
1265.62500,0.10710
1263.86719,0.11233
1262.10938,0.11715
1260.35156,0.12155
1258.59375,0.12531
1256.83594,0.12848
1255.07813,0.13192
1253.32031,0.13630
1251.56250,0.14122
1249.80469,0.14593
1248.04688,0.15024
1246.28906,0.15389
1244.53125,0.15576
1242.77344,0.15493
1241.01563,0.15167
1239.25781,0.14639
1237.50000,0.13893
1235.74219,0.12958
1233.98438,0.11946
1232.22656,0.10974
1230.46875,0.10129
1228.71094,0.09421
1226.95313,0.08805
1225.19531,0.08275
1223.43750,0.07842
1221.67969,0.07465
1219.92188,0.07100
1218.16406,0.06705
1216.40625,0.06260
1214.64844,0.05835
1212.89063,0.05517
1211.13281,0.05287
1209.37500,0.05081
1207.61719,0.04868
1205.85938,0.04641
1204.10156,0.04410
1202.34375,0.04195
1200.58594,0.03996
1198.82813,0.03819
1197.07031,0.03674
1195.31250,0.03549
1193.55469,0.03427
1191.79688,0.03293
1190.03906,0.03155
1188.28125,0.03044
1186.52344,0.02971
1184.76563,0.02921
1183.00781,0.02908
1181.25000,0.02947
1179.49219,0.03011
1177.73438,0.03040
1175.97656,0.03008
1174.21875,0.02936
1172.46094,0.02850
1170.70313,0.02774
1168.94531,0.02725
1167.18750,0.02685
1165.42969,0.02633
1163.67188,0.02586
1161.91406,0.02556
1160.15625,0.02522
1158.39844,0.02498
1156.64063,0.02539
1154.88281,0.02646
1153.12500,0.02756
1151.36719,0.02849
1149.60938,0.02952
1147.85156,0.03081
1146.09375,0.03253
1144.33594,0.03477
1142.57813,0.03759
1140.82031,0.04112
1139.06250,0.04528
1137.30469,0.05013
1135.54688,0.05588
1133.78906,0.06252
1132.03125,0.07014
1130.27344,0.07845
1128.51563,0.08610
1126.75781,0.09230
1125.00000,0.09770
1123.24219,0.10245
1121.48438,0.10570
1119.72656,0.10718
1117.96875,0.10765
1116.21094,0.10780
1114.45313,0.10780
1112.69531,0.10822
1110.93750,0.11004
1109.17969,0.11328
1107.42188,0.11723
1105.66406,0.12178
1103.90625,0.12678
1102.14844,0.13126
1100.39063,0.13444
1098.63281,0.13604
1096.87500,0.13562
1095.11719,0.13325
1093.35938,0.12999
1091.60156,0.12648
1089.84375,0.12258
1088.08594,0.11825
1086.32813,0.11318
1084.57031,0.10696
1082.81250,0.10024
1081.05469,0.09396
1079.29688,0.08818
1077.53906,0.08266
1075.78125,0.07732
1074.02344,0.07236
1072.26563,0.06833
1070.50781,0.06497
1068.75000,0.06152
1066.99219,0.05828
1065.23438,0.05579
1063.47656,0.05359
1061.71875,0.05104
1059.96094,0.04854
1058.20313,0.04689
1056.44531,0.04630
1054.68750,0.04644
1052.92969,0.04668
1051.17188,0.04642
1049.41406,0.04593
1047.65625,0.04608
1045.89844,0.04715
1044.14063,0.04845
1042.38281,0.04864
1040.62500,0.04709
1038.86719,0.04479
1037.10938,0.04303
1035.35156,0.04182
1033.59375,0.04041
1031.83594,0.03892
1030.07813,0.03886
1028.32031,0.04199
1026.56250,0.04893
1024.80469,0.05862
1023.04688,0.06904
1021.28906,0.07857
1019.53125,0.08573
1017.77344,0.08807
1016.01563,0.08375
1014.25781,0.07443
1012.50000,0.06440
1010.74219,0.05681
1008.98438,0.05211
1007.22656,0.04912
1005.46875,0.04650
1003.71094,0.04399
1001.95313,0.04201
1000.19531,0.04037
998.43750,0.03867
996.67969,0.03712
994.92188,0.03599
993.16406,0.03538
991.40625,0.03546
989.64844,0.03602
987.89063,0.03648
986.13281,0.03701
984.37500,0.03811
982.61719,0.03972
980.85938,0.04142
979.10156,0.04270
977.34375,0.04328
975.58594,0.04404
973.82813,0.04593
972.07031,0.04814
970.31250,0.04903
968.55469,0.04847
966.79688,0.04759
965.03906,0.04642
963.28125,0.04421
961.52344,0.04137
959.76563,0.03909
958.00781,0.03735
956.25000,0.03538
954.49219,0.03339
952.73438,0.03243
950.97656,0.03280
949.21875,0.03348
947.46094,0.03288
945.70313,0.03088
943.94531,0.02921
942.18750,0.02913
940.42969,0.03009
938.67188,0.03102
936.91406,0.03150
935.15625,0.03156
933.39844,0.03112
931.64063,0.02991
929.88281,0.02848
928.12500,0.02788
926.36719,0.02776
924.60938,0.02714
922.85156,0.02652
921.09375,0.02673
919.33594,0.02769
917.57813,0.02871
915.82031,0.02881
914.06250,0.02821
912.30469,0.02856
910.54688,0.03031
908.78906,0.03212
907.03125,0.03233
905.27344,0.03073
903.51563,0.02937
901.75781,0.02975
900.00000,0.03055
898.24219,0.03041
896.48438,0.02993
894.72656,0.02942
892.96875,0.02865
891.21094,0.02857
889.45313,0.02958
887.69531,0.03041
885.93750,0.03104
884.17969,0.03246
882.42188,0.03406
880.66406,0.03586
878.90625,0.04005
877.14844,0.04780
875.39063,0.05787
873.63281,0.06684
871.87500,0.06924
870.11719,0.06301
868.35938,0.05343
866.60156,0.04574
864.84375,0.04094
863.08594,0.03954
861.32813,0.04052
859.57031,0.04055
857.81250,0.03968
856.05469,0.04015
854.29688,0.04144
852.53906,0.04335
850.78125,0.04729
849.02344,0.05143
847.26563,0.05210
845.50781,0.04944
843.75000,0.04635
841.99219,0.04425
840.23438,0.04285
838.47656,0.04120
836.71875,0.03823
834.96094,0.03467
833.20313,0.03269
831.44531,0.03245
829.68750,0.03274
827.92969,0.03346
826.17188,0.03429
824.41406,0.03367
822.65625,0.03178
820.89844,0.03141
819.14063,0.03353
817.38281,0.03570
815.62500,0.03636
813.86719,0.03499
812.10938,0.03084
810.35156,0.02727
808.59375,0.02818
806.83594,0.03031
805.07813,0.02913
803.32031,0.02650
801.56250,0.02569
799.80469,0.02634
798.04688,0.02711
796.28906,0.02813
794.53125,0.02905
792.77344,0.02901
791.01563,0.02867
789.25781,0.02810
787.50000,0.02771
785.74219,0.03075
783.98438,0.03578
782.22656,0.03504
780.46875,0.02933
778.71094,0.02845
776.95313,0.03266
775.19531,0.03243
773.43750,0.02901
771.67969,0.03263
769.92188,0.03939
768.16406,0.03879
766.40625,0.03432
764.64844,0.03106
762.89063,0.02322
761.13281,0.01127
759.37500,0.00773
757.61719,0.01536
755.85938,0.02239
754.10156,0.02150
752.34375,0.01610
750.58594,0.01135
748.82813,0.00912
747.07031,0.00854
745.31250,0.00845
743.55469,0.00885
741.79688,0.01243
740.03906,0.02489
738.28125,0.04815
736.52344,0.07291
734.76563,0.08824
733.00781,0.09380
731.25000,0.10218
729.49219,0.12756
727.73438,0.17096
725.97656,0.21400
724.21875,0.23176
722.46094,0.22172
720.70313,0.19577
718.94531,0.16060
717.18750,0.12960
715.42969,0.11535
713.67188,0.11257
711.91406,0.10944
710.15625,0.10576
708.39844,0.11094
706.64063,0.12461
704.88281,0.12739
703.12500,0.10434
701.36719,0.06998
699.60938,0.04527
697.85156,0.02894
696.09375,0.01873
694.33594,0.02550
692.57813,0.05003
690.82031,0.07140
689.06250,0.06558
687.30469,0.03501
685.54688,0.00993
683.78906,0.00681
682.03125,0.01142
680.27344,0.01519
678.51563,0.02390
