3997.26563,0.00038
3995.50781,0.00093
3993.75000,0.00232
3991.99219,0.00191
3990.23438,-0.00048
3988.47656,-0.00235
3986.71875,-0.00183
3984.96094,0.00012
3983.20313,0.00145
3981.44531,0.00138
3979.68750,0.00052
3977.92969,-0.00088
3976.17188,-0.00278
3974.41406,-0.00368
3972.65625,-0.00253
3970.89844,-0.00127
3969.14063,-0.00174
3967.38281,-0.00222
3965.62500,-0.00041
3963.86719,0.00179
3962.10938,0.00129
3960.35156,-0.00086
3958.59375,-0.00196
3956.83594,-0.00203
3955.07813,-0.00266
3953.32031,-0.00479
3951.56250,-0.00679
3949.80469,-0.00578
3948.04688,-0.00264
3946.28906,-0.00083
3944.53125,-0.00032
3942.77344,0.00039
3941.01563,0.00043
3939.25781,-0.00117
3937.50000,-0.00346
3935.74219,-0.00525
3933.98438,-0.00605
3932.22656,-0.00570
3930.46875,-0.00395
3928.71094,-0.00182
3926.95313,-0.00100
3925.19531,-0.00102
3923.43750,-0.00075
3921.67969,-0.00097
3919.92188,-0.00206
3918.16406,-0.00349
3916.40625,-0.00491
3914.64844,-0.00525
3912.89063,-0.00445
3911.13281,-0.00355
3909.37500,-0.00286
3907.61719,-0.00290
3905.85938,-0.00426
3904.10156,-0.00615
3902.34375,-0.00688
3900.58594,-0.00528
3898.82813,-0.00169
3897.07031,0.00085
3895.31250,0.00075
3893.55469,-0.00020
3891.79688,-0.00024
3890.03906,0.00020
3888.28125,-0.00016
3886.52344,-0.00169
3884.76563,-0.00344
3883.00781,-0.00315
3881.25000,-0.00155
3879.49219,-0.00150
3877.73438,-0.00270
3875.97656,-0.00300
3874.21875,-0.00241
3872.46094,-0.00179
3870.70313,-0.00092
3868.94531,-0.00027
3867.18750,-0.00140
3865.42969,-0.00353
3863.67188,-0.00443
3861.91406,-0.00316
3860.15625,-0.00123
3858.39844,0.00026
3856.64063,0.00065
3854.88281,-0.00101
3853.12500,-0.00391
3851.36719,-0.00418
3849.60938,-0.00274
3847.85156,-0.00116
3846.09375,0.00006
3844.33594,0.00013
3842.57813,-0.00017
3840.82031,0.00046
3839.06250,0.00001
3837.30469,-0.00272
3835.54688,-0.00386
3833.78906,-0.00289
3832.03125,-0.00229
3830.27344,-0.00189
3828.51563,-0.00088
3826.75781,-0.00051
3825.00000,-0.00149
3823.24219,-0.00246
3821.48438,-0.00188
3819.72656,0.00002
3817.96875,0.00023
3816.21094,-0.00184
3814.45313,-0.00305
3812.69531,-0.00233
3810.93750,-0.00202
3809.17969,-0.00277
3807.42188,-0.00331
3805.66406,-0.00240
3803.90625,-0.00098
3802.14844,-0.00049
3800.39063,-0.00068
3798.63281,-0.00054
3796.87500,-0.00097
3795.11719,-0.00234
3793.35938,-0.00314
3791.60156,-0.00254
3789.84375,-0.00108
3788.08594,0.00042
3786.32813,0.00135
3784.57031,0.00163
3782.81250,0.00146
3781.05469,0.00063
3779.29688,-0.00104
3777.53906,-0.00198
3775.78125,-0.00123
3774.02344,-0.00030
3772.26563,0.00016
3770.50781,0.00084
3768.75000,0.00167
3766.99219,0.00234
3765.23438,0.00242
3763.47656,0.00077
3761.71875,-0.00149
3759.96094,-0.00196
3758.20313,-0.00082
3756.44531,-0.00026
3754.68750,-0.00019
3752.92969,0.00012
3751.17188,-0.00015
3749.41406,-0.00106
3747.65625,-0.00079
3745.89844,0.00040
3744.14063,0.00077
3742.38281,-0.00099
3740.62500,-0.00288
3738.86719,-0.00334
3737.10938,-0.00272
3735.35156,-0.00140
3733.59375,0.00125
3731.83594,0.00297
3730.07813,0.00186
3728.32031,-0.00001
3726.56250,-0.00088
3724.80469,-0.00189
3723.04688,-0.00452
3721.28906,-0.00645
3719.53125,-0.00535
3717.77344,-0.00287
3716.01563,-0.00088
3714.25781,0.00057
3712.50000,0.00061
3710.74219,-0.00187
3708.98438,-0.00385
3707.22656,-0.00342
3705.46875,-0.00191
3703.71094,-0.00022
3701.95313,0.00048
3700.19531,-0.00034
3698.43750,-0.00058
3696.67969,0.00066
3694.92188,0.00201
3693.16406,0.00285
3691.40625,0.00376
3689.64844,0.00432
3687.89063,0.00363
3686.13281,0.00222
3684.37500,0.00067
3682.61719,-0.00019
3680.85938,0.00045
3679.10156,0.00153
3677.34375,0.00096
3675.58594,-0.00190
3673.82813,-0.00424
3672.07031,-0.00416
3670.31250,-0.00284
3668.55469,-0.00137
3666.79688,-0.00049
3665.03906,-0.00065
3663.28125,-0.00229
3661.52344,-0.00426
3659.76563,-0.00433
3658.00781,-0.00240
3656.25000,-0.00009
3654.49219,0.00142
3652.73438,0.00212
3650.97656,0.00182
3649.21875,-0.00049
3647.46094,-0.00323
3645.70313,-0.00281
3643.94531,-0.00042
3642.18750,0.00120
3640.42969,0.00068
3638.67188,-0.00053
3636.91406,-0.00079
3635.15625,-0.00081
3633.39844,-0.00089
3631.64063,0.00027
3629.88281,0.00227
3628.12500,0.00196
3626.36719,-0.00021
3624.60938,-0.00116
3622.85156,-0.00048
3621.09375,0.00149
3619.33594,0.00351
3617.57813,0.00429
3615.82031,0.00410
3614.06250,0.00288
3612.30469,0.00045
3610.54688,-0.00206
3608.78906,-0.00374
3607.03125,-0.00468
3605.27344,-0.00451
3603.51563,-0.00284
3601.75781,-0.00095
3600.00000,-0.00078
3598.24219,-0.00192
3596.48438,-0.00275
3594.72656,-0.00265
3592.96875,-0.00128
3591.21094,-0.00027
3589.45313,-0.00141
3587.69531,-0.00316
3585.93750,-0.00225
3584.17969,0.00001
3582.42188,0.00125
3580.66406,0.00169
3578.90625,0.00155
3577.14844,0.00084
3575.39063,0.00027
3573.63281,0.00002
3571.87500,-0.00024
3570.11719,0.00010
3568.35938,0.00181
3566.60156,0.00386
3564.84375,0.00388
3563.08594,0.00266
3561.32813,0.00159
3559.57031,0.00049
3557.81250,-0.00040
3556.05469,-0.00048
3554.29688,-0.00008
3552.53906,-0.00011
3550.78125,-0.00085
3549.02344,-0.00137
3547.26563,-0.00132
3545.50781,-0.00199
3543.75000,-0.00314
3541.99219,-0.00248
3540.23438,-0.00004
3538.47656,0.00156
3536.71875,0.00041
3534.96094,-0.00174
3533.20313,-0.00216
3531.44531,-0.00150
3529.68750,-0.00109
3527.92969,-0.00037
3526.17188,-0.00002
3524.41406,-0.00118
3522.65625,-0.00225
3520.89844,-0.00216
3519.14063,-0.00169
3517.38281,-0.00070
3515.62500,0.00093
3513.86719,0.00221
3512.10938,0.00245
3510.35156,0.00130
3508.59375,-0.00046
3506.83594,-0.00067
3505.07813,0.00095
3503.32031,0.00282
3501.56250,0.00453
3499.80469,0.00630
3498.04688,0.00701
3496.28906,0.00562
3494.53125,0.00268
3492.77344,0.00038
3491.01563,0.00064
3489.25781,0.00248
3487.50000,0.00336
3485.74219,0.00317
3483.98438,0.00280
3482.22656,0.00219
3480.46875,0.00159
3478.71094,0.00120
3476.95313,0.00132
3475.19531,0.00297
3473.43750,0.00482
3471.67969,0.00435
3469.92188,0.00276
3468.16406,0.00267
3466.40625,0.00351
3464.64844,0.00359
3462.89063,0.00310
3461.13281,0.00227
3459.37500,0.00083
3457.61719,0.00042
3455.85938,0.00249
3454.10156,0.00445
3452.34375,0.00368
3450.58594,0.00249
3448.82813,0.00314
3447.07031,0.00377
3445.31250,0.00334
3443.55469,0.00352
3441.79688,0.00430
3440.03906,0.00461
3438.28125,0.00422
3436.52344,0.00322
3434.76563,0.00235
3433.00781,0.00239
3431.25000,0.00261
3429.49219,0.00262
3427.73438,0.00316
3425.97656,0.00350
3424.21875,0.00233
3422.46094,0.00088
3420.70313,0.00133
3418.94531,0.00317
3417.18750,0.00439
3415.42969,0.00475
3413.67188,0.00498
3411.91406,0.00423
3410.15625,0.00221
3408.39844,0.00098
3406.64063,0.00120
3404.88281,0.00131
3403.12500,0.00114
3401.36719,0.00142
3399.60938,0.00158
3397.85156,0.00073
3396.09375,-0.00067
3394.33594,-0.00148
3392.57813,-0.00135
3390.82031,-0.00014
3389.06250,0.00246
3387.30469,0.00485
3385.54688,0.00521
3383.78906,0.00429
3382.03125,0.00297
3380.27344,0.00127
3378.51563,0.00051
3376.75781,0.00193
3375.00000,0.00423
3373.24219,0.00477
3371.48438,0.00284
3369.72656,0.00101
3367.96875,0.00125
3366.21094,0.00200
3364.45313,0.00165
3362.69531,0.00095
3360.93750,0.00059
3359.17969,0.00073
3357.42188,0.00181
3355.66406,0.00386
3353.90625,0.00615
3352.14844,0.00768
3350.39063,0.00739
3348.63281,0.00501
3346.87500,0.00219
3345.11719,0.00146
3343.35938,0.00318
3341.60156,0.00498
3339.84375,0.00540
3338.08594,0.00552
3336.32813,0.00579
3334.57031,0.00531
3332.81250,0.00432
3331.05469,0.00361
3329.29688,0.00314
3327.53906,0.00345
3325.78125,0.00509
3324.02344,0.00616
3322.26563,0.00476
3320.50781,0.00209
3318.75000,0.00041
3316.99219,0.00061
3315.23438,0.00230
3313.47656,0.00384
3311.71875,0.00387
3309.96094,0.00320
3308.20313,0.00300
3306.44531,0.00316
3304.68750,0.00334
3302.92969,0.00306
3301.17188,0.00215
3299.41406,0.00182
3297.65625,0.00268
3295.89844,0.00322
3294.14063,0.00290
3292.38281,0.00306
3290.62500,0.00375
3288.86719,0.00396
3287.10938,0.00383
3285.35156,0.00361
3283.59375,0.00300
3281.83594,0.00247
3280.07813,0.00281
3278.32031,0.00390
3276.56250,0.00511
3274.80469,0.00583
3273.04688,0.00551
3271.28906,0.00429
3269.53125,0.00277
3267.77344,0.00129
3266.01563,0.00051
3264.25781,0.00109
3262.50000,0.00208
3260.74219,0.00204
3258.98438,0.00156
3257.22656,0.00198
3255.46875,0.00245
3253.71094,0.00150
3251.95313,-0.00002
3250.19531,-0.00062
3248.43750,-0.00019
3246.67969,0.00106
3244.92188,0.00308
3243.16406,0.00505
3241.40625,0.00585
3239.64844,0.00550
3237.89063,0.00532
3236.13281,0.00546
3234.37500,0.00434
3232.61719,0.00202
3230.85938,0.00096
3229.10156,0.00204
3227.34375,0.00328
3225.58594,0.00317
3223.82813,0.00243
3222.07031,0.00208
3220.31250,0.00221
3218.55469,0.00202
3216.79688,0.00096
3215.03906,0.00017
3213.28125,0.00040
3211.52344,0.00034
3209.76563,-0.00049
3208.00781,-0.00056
3206.25000,0.00076
3204.49219,0.00179
3202.73438,0.00138
3200.97656,0.00083
3199.21875,0.00124
3197.46094,0.00156
3195.70313,0.00079
3193.94531,-0.00021
3192.18750,-0.00024
3190.42969,0.00059
3188.67188,0.00115
3186.91406,0.00080
3185.15625,0.00021
3183.39844,0.00044
3181.64063,0.00108
3179.88281,0.00090
3178.12500,0.00008
3176.36719,0.00001
3174.60938,0.00120
3172.85156,0.00264
3171.09375,0.00294
3169.33594,0.00187
3167.57813,0.00105
3165.82031,0.00183
3164.06250,0.00281
3162.30469,0.00223
3160.54688,0.00111
3158.78906,0.00083
3157.03125,0.00151
3155.27344,0.00299
3153.51563,0.00423
3151.75781,0.00412
3150.00000,0.00312
3148.24219,0.00169
3146.48438,-0.00005
3144.72656,-0.00108
3142.96875,-0.00073
3141.21094,0.00019
3139.45313,0.00065
3137.69531,0.00065
3135.93750,0.00091
3134.17969,0.00164
3132.42188,0.00179
3130.66406,0.00093
3128.90625,0.00029
3127.14844,0.00041
3125.39063,0.00045
3123.63281,0.00020
3121.87500,0.00015
3120.11719,0.00046
3118.35938,0.00082
3116.60156,0.00108
3114.84375,0.00193
3113.08594,0.00340
3111.32813,0.00405
3109.57031,0.00327
3107.81250,0.00225
3106.05469,0.00168
3104.29688,0.00093
3102.53906,-0.00023
3100.78125,-0.00077
3099.02344,0.00005
3097.26563,0.00162
3095.50781,0.00254
3093.75000,0.00178
3091.99219,-0.00004
3090.23438,-0.00100
3088.47656,-0.00005
3086.71875,0.00168
3084.96094,0.00295
3083.20313,0.00340
3081.44531,0.00251
3079.68750,0.00049
3077.92969,-0.00104
3076.17188,-0.00092
3074.41406,0.00054
3072.65625,0.00209
3070.89844,0.00279
3069.14063,0.00294
3067.38281,0.00291
3065.62500,0.00245
3063.86719,0.00167
3062.10938,0.00103
3060.35156,0.00070
3058.59375,0.00066
3056.83594,0.00091
3055.07813,0.00154
3053.32031,0.00234
3051.56250,0.00276
3049.80469,0.00254
3048.04688,0.00225
3046.28906,0.00264
3044.53125,0.00340
3042.77344,0.00339
3041.01563,0.00231
3039.25781,0.00110
3037.50000,0.00065
3035.74219,0.00084
3033.98438,0.00085
3032.22656,0.00068
3030.46875,0.00088
3028.71094,0.00103
3026.95313,0.00093
3025.19531,0.00151
3023.43750,0.00259
3021.67969,0.00289
3019.92188,0.00239
3018.16406,0.00181
3016.40625,0.00137
3014.64844,0.00127
3012.89063,0.00154
3011.13281,0.00174
3009.37500,0.00170
3007.61719,0.00174
3005.85938,0.00182
3004.10156,0.00158
3002.34375,0.00133
3000.58594,0.00142
2998.82813,0.00153
2997.07031,0.00164
2995.31250,0.00224
2993.55469,0.00297
2991.79688,0.00272
2990.03906,0.00144
2988.28125,0.00064
2986.52344,0.00146
2984.76563,0.00300
2983.00781,0.00392
2981.25000,0.00449
2979.49219,0.00559
2977.73438,0.00669
2975.97656,0.00685
2974.21875,0.00656
2972.46094,0.00674
2970.70313,0.00722
2968.94531,0.00735
2967.18750,0.00690
2965.42969,0.00635
2963.67188,0.00687
2961.91406,0.00881
2960.15625,0.01073
2958.39844,0.01123
2956.64063,0.01080
2954.88281,0.01056
2953.12500,0.01057
2951.36719,0.01020
2949.60938,0.00939
2947.85156,0.00866
2946.09375,0.00844
2944.33594,0.00883
2942.57813,0.00969
2940.82031,0.01081
2939.06250,0.01213
2937.30469,0.01355
2935.54688,0.01450
2933.78906,0.01483
2932.03125,0.01524
2930.27344,0.01670
2928.51563,0.01926
2926.75781,0.02146
2925.00000,0.02232
2923.24219,0.02262
2921.48438,0.02300
2919.72656,0.02318
2917.96875,0.02291
2916.21094,0.02221
2914.45313,0.02101
2912.69531,0.01939
2910.93750,0.01790
2909.17969,0.01695
2907.42188,0.01617
2905.66406,0.01535
2903.90625,0.01503
2902.14844,0.01526
2900.39063,0.01490
2898.63281,0.01313
2896.87500,0.01046
2895.11719,0.00814
2893.35938,0.00702
2891.60156,0.00685
2889.84375,0.00675
2888.08594,0.00651
2886.32813,0.00631
2884.57031,0.00603
2882.81250,0.00567
2881.05469,0.00550
2879.29688,0.00581
2877.53906,0.00625
2875.78125,0.00576
2874.02344,0.00434
2872.26563,0.00339
2870.50781,0.00357
2868.75000,0.00408
2866.99219,0.00439
2865.23438,0.00495
2863.47656,0.00560
2861.71875,0.00547
2859.96094,0.00470
2858.20313,0.00457
2856.44531,0.00591
2854.68750,0.00829
2852.92969,0.01084
2851.17188,0.01270
2849.41406,0.01257
2847.65625,0.00996
2845.89844,0.00652
2844.14063,0.00420
2842.38281,0.00346
2840.62500,0.00381
2838.86719,0.00460
2837.10938,0.00482
2835.35156,0.00371
2833.59375,0.00191
2831.83594,0.00071
2830.07813,0.00059
2828.32031,0.00128
2826.56250,0.00237
2824.80469,0.00344
2823.04688,0.00371
2821.28906,0.00285
2819.53125,0.00205
2817.77344,0.00248
2816.01563,0.00359
2814.25781,0.00425
2812.50000,0.00406
2810.74219,0.00336
2808.98438,0.00265
2807.22656,0.00195
2805.46875,0.00126
2803.71094,0.00093
2801.95313,0.00095
2800.19531,0.00074
2798.43750,0.00001
2796.67969,-0.00072
2794.92188,-0.00098
2793.16406,-0.00079
2791.40625,-0.00046
2789.64844,-0.00014
2787.89063,0.00037
2786.13281,0.00110
2784.37500,0.00162
2782.61719,0.00172
2780.85938,0.00157
2779.10156,0.00120
2777.34375,0.00090
2775.58594,0.00115
2773.82813,0.00156
2772.07031,0.00135
2770.31250,0.00085
2768.55469,0.00085
2766.79688,0.00119
2765.03906,0.00135
2763.28125,0.00166
2761.52344,0.00223
2759.76563,0.00192
2758.00781,0.00024
2756.25000,-0.00151
2754.49219,-0.00220
2752.73438,-0.00206
2750.97656,-0.00153
2749.21875,-0.00094
2747.46094,-0.00047
2745.70313,0.00015
2743.94531,0.00102
2742.18750,0.00176
2740.42969,0.00189
2738.67188,0.00163
2736.91406,0.00160
2735.15625,0.00133
2733.39844,0.00007
2731.64063,-0.00115
2729.88281,-0.00103
2728.12500,-0.00010
2726.36719,0.00034
2724.60938,0.00011
2722.85156,-0.00022
2721.09375,-0.00048
2719.33594,-0.00083
2717.57813,-0.00099
2715.82031,-0.00033
2714.06250,0.00096
2712.30469,0.00173
2710.54688,0.00160
2708.78906,0.00117
2707.03125,0.00062
2705.27344,0.00006
2703.51563,-0.00000
2701.75781,0.00017
2700.00000,-0.00001
2698.24219,-0.00007
2696.48438,0.00026
2694.72656,0.00018
2692.96875,-0.00045
2691.21094,-0.00073
2689.45313,-0.00015
2687.69531,0.00086
2685.93750,0.00161
2684.17969,0.00149
2682.42188,0.00063
2680.66406,0.00018
2678.90625,0.00053
2677.14844,0.00066
2675.39063,0.00026
2673.63281,0.00005
2671.87500,0.00019
2670.11719,0.00058
2668.35938,0.00119
2666.60156,0.00171
2664.84375,0.00177
2663.08594,0.00111
2661.32813,0.00011
2659.57031,-0.00039
2657.81250,-0.00030
2656.05469,0.00001
2654.29688,0.00052
2652.53906,0.00120
2650.78125,0.00165
2649.02344,0.00137
2647.26563,0.00042
2645.50781,-0.00037
2643.75000,-0.00049
2641.99219,-0.00028
2640.23438,-0.00026
2638.47656,-0.00048
2636.71875,-0.00087
2634.96094,-0.00153
2633.20313,-0.00193
2631.44531,-0.00116
2629.68750,0.00038
2627.92969,0.00138
2626.17188,0.00132
2624.41406,0.00069
2622.65625,0.00014
2620.89844,0.00001
2619.14063,0.00031
2617.38281,0.00063
2615.62500,0.00059
2613.86719,0.00038
2612.10938,0.00030
2610.35156,0.00024
2608.59375,-0.00002
2606.83594,-0.00025
2605.07813,-0.00015
2603.32031,0.00031
2601.56250,0.00105
2599.80469,0.00189
2598.04688,0.00237
2596.28906,0.00232
2594.53125,0.00210
2592.77344,0.00193
2591.01563,0.00155
2589.25781,0.00078
2587.50000,-0.00009
2585.74219,-0.00067
2583.98438,-0.00083
2582.22656,-0.00055
2580.46875,0.00018
2578.71094,0.00085
2576.95313,0.00088
2575.19531,0.00036
2573.43750,0.00000
2571.67969,0.00040
2569.92188,0.00139
2568.16406,0.00207
2566.40625,0.00168
2564.64844,0.00059
2562.89063,-0.00007
2561.13281,0.00021
2559.37500,0.00071
2557.61719,0.00053
2555.85938,-0.00003
2554.10156,0.00021
2552.34375,0.00144
2550.58594,0.00237
2548.82813,0.00202
2547.07031,0.00085
2545.31250,-0.00004
2543.55469,0.00000
2541.79688,0.00094
2540.03906,0.00223
2538.28125,0.00289
2536.52344,0.00210
2534.76563,0.00052
2533.00781,-0.00027
2531.25000,0.00006
2529.49219,0.00056
2527.73438,0.00083
2525.97656,0.00146
2524.21875,0.00242
2522.46094,0.00286
2520.70313,0.00259
2518.94531,0.00195
2517.18750,0.00092
2515.42969,-0.00002
2513.67188,0.00006
2511.91406,0.00108
2510.15625,0.00213
2508.39844,0.00267
2506.64063,0.00267
2504.88281,0.00223
2503.12500,0.00145
2501.36719,0.00035
2499.60938,-0.00078
2497.85156,-0.00120
2496.09375,-0.00046
2494.33594,0.00083
2492.57813,0.00153
2490.82031,0.00135
2489.06250,0.00098
2487.30469,0.00088
2485.54688,0.00070
2483.78906,0.00029
2482.03125,0.00003
2480.27344,0.00010
2478.51563,0.00043
2476.75781,0.00094
2475.00000,0.00142
2473.24219,0.00167
2471.48438,0.00157
2469.72656,0.00102
2467.96875,0.00031
2466.21094,0.00008
2464.45313,0.00028
2462.69531,0.00018
2460.93750,-0.00020
2459.17969,-0.00013
2457.42188,0.00066
2455.66406,0.00146
2453.90625,0.00139
2452.14844,0.00057
2450.39063,-0.00005
2448.63281,-0.00002
2446.87500,0.00050
2445.11719,0.00125
2443.35938,0.00139
2441.60156,0.00046
2439.84375,-0.00057
2438.08594,-0.00050
2436.32813,0.00032
2434.57031,0.00062
2432.81250,0.00011
2431.05469,-0.00014
2429.29688,0.00030
2427.53906,0.00036
2425.78125,-0.00049
2424.02344,-0.00111
2422.26563,-0.00068
2420.50781,0.00006
2418.75000,0.00021
2416.99219,-0.00016
2415.23438,-0.00036
2413.47656,-0.00001
2411.71875,0.00063
2409.96094,0.00101
2408.20313,0.00087
2406.44531,0.00068
2404.68750,0.00078
2402.92969,0.00062
2401.17188,0.00002
2399.41406,-0.00028
2397.65625,0.00005
2395.89844,0.00064
2394.14063,0.00126
2392.38281,0.00157
2390.62500,0.00138
2388.86719,0.00131
2387.10938,0.00169
2385.35156,0.00183
2383.59375,0.00141
2381.83594,0.00110
2380.07813,0.00141
2378.32031,0.00217
2376.56250,0.00274
2374.80469,0.00211
2373.04688,-0.00009
2371.28906,-0.00264
2369.53125,-0.00245
2367.77344,0.00207
2366.01563,0.00546
2364.25781,0.00210
2362.50000,-0.00327
2360.74219,-0.00487
2358.98438,-0.00519
2357.22656,-0.00548
2355.46875,-0.00302
2353.71094,0.00049
2351.95313,0.00227
2350.19531,0.00297
2348.43750,0.00263
2346.67969,0.00095
2344.92188,-0.00002
2343.16406,0.00071
2341.40625,-0.00057
2339.64844,-0.00357
2337.89063,-0.00438
2336.13281,-0.00353
2334.37500,-0.00326
2332.61719,-0.00353
2330.85938,-0.00370
2329.10156,-0.00338
2327.34375,-0.00265
2325.58594,-0.00248
2323.82813,-0.00257
2322.07031,-0.00154
2320.31250,-0.00003
2318.55469,0.00051
2316.79688,0.00039
2315.03906,0.00051
2313.28125,0.00113
2311.52344,0.00197
2309.76563,0.00262
2308.00781,0.00253
2306.25000,0.00150
2304.49219,0.00035
2302.73438,-0.00009
2300.97656,0.00004
2299.21875,0.00039
2297.46094,0.00091
2295.70313,0.00141
2293.94531,0.00140
2292.18750,0.00071
2290.42969,-0.00001
2288.67188,-0.00006
2286.91406,0.00018
2285.15625,-0.00001
2283.39844,-0.00056
2281.64063,-0.00081
2279.88281,-0.00041
2278.12500,0.00033
2276.36719,0.00087
2274.60938,0.00069
2272.85156,-0.00002
2271.09375,-0.00006
2269.33594,0.00075
2267.57813,0.00103
2265.82031,0.00065
2264.06250,0.00061
2262.30469,0.00080
2260.54688,0.00082
2258.78906,0.00103
2257.03125,0.00150
2255.27344,0.00172
2253.51563,0.00149
2251.75781,0.00106
2250.00000,0.00068
2248.24219,0.00032
2246.48438,-0.00015
2244.72656,-0.00065
2242.96875,-0.00072
2241.21094,-0.00027
2239.45313,0.00006
2237.69531,0.00010
2235.93750,0.00033
2234.17969,0.00058
2232.42188,0.00062
2230.66406,0.00094
2228.90625,0.00129
2227.14844,0.00099
2225.39063,0.00056
2223.63281,0.00081
2221.87500,0.00140
2220.11719,0.00156
2218.35938,0.00121
2216.60156,0.00081
2214.84375,0.00093
2213.08594,0.00165
2211.32813,0.00228
2209.57031,0.00215
2207.81250,0.00137
2206.05469,0.00054
2204.29688,0.00020
2202.53906,0.00035
2200.78125,0.00035
2199.02344,0.00009
2197.26563,0.00033
2195.50781,0.00107
2193.75000,0.00145
2191.99219,0.00127
2190.23438,0.00075
2188.47656,-0.00001
2186.71875,-0.00052
2184.96094,-0.00040
2183.20313,0.00017
2181.44531,0.00090
2179.68750,0.00152
2177.92969,0.00150
2176.17188,0.00078
2174.41406,0.00006
2172.65625,0.00003
2170.89844,0.00066
2169.14063,0.00126
2167.38281,0.00124
2165.62500,0.00091
2163.86719,0.00087
2162.10938,0.00115
2160.35156,0.00139
2158.59375,0.00156
2156.83594,0.00186
2155.07813,0.00212
2153.32031,0.00195
2151.56250,0.00167
2149.80469,0.00155
2148.04688,0.00119
2146.28906,0.00085
2144.53125,0.00136
2142.77344,0.00238
2141.01563,0.00293
2139.25781,0.00267
2137.50000,0.00185
2135.74219,0.00123
2133.98438,0.00151
2132.22656,0.00224
2130.46875,0.00233
2128.71094,0.00162
2126.95313,0.00101
2125.19531,0.00129
2123.43750,0.00221
2121.67969,0.00289
2119.92188,0.00296
2118.16406,0.00251
2116.40625,0.00161
2114.64844,0.00092
2112.89063,0.00107
2111.13281,0.00143
2109.37500,0.00118
2107.61719,0.00077
2105.85938,0.00097
2104.10156,0.00147
2102.34375,0.00160
2100.58594,0.00142
2098.82813,0.00135
2097.07031,0.00145
2095.31250,0.00156
2093.55469,0.00156
2091.79688,0.00168
2090.03906,0.00202
2088.28125,0.00211
2086.52344,0.00176
2084.76563,0.00142
2083.00781,0.00141
2081.25000,0.00161
2079.49219,0.00191
2077.73438,0.00241
2075.97656,0.00287
2074.21875,0.00269
2072.46094,0.00190
2070.70313,0.00134
2068.94531,0.00132
2067.18750,0.00140
2065.42969,0.00139
2063.67188,0.00143
2061.91406,0.00159
2060.15625,0.00180
2058.39844,0.00203
2056.64063,0.00231
2054.88281,0.00239
2053.12500,0.00200
2051.36719,0.00134
2049.60938,0.00109
2047.85156,0.00161
2046.09375,0.00231
2044.33594,0.00226
2042.57813,0.00151
2040.82031,0.00088
2039.06250,0.00078
2037.30469,0.00099
2035.54688,0.00109
2033.78906,0.00085
2032.03125,0.00068
2030.27344,0.00100
2028.51563,0.00157
2026.75781,0.00198
2025.00000,0.00210
2023.24219,0.00191
2021.48438,0.00150
2019.72656,0.00139
2017.96875,0.00195
2016.21094,0.00255
2014.45313,0.00255
2012.69531,0.00228
2010.93750,0.00216
2009.17969,0.00199
2007.42188,0.00163
2005.66406,0.00142
2003.90625,0.00171
2002.14844,0.00249
2000.39063,0.00323
1998.63281,0.00339
1996.87500,0.00306
1995.11719,0.00273
1993.35938,0.00243
1991.60156,0.00189
1989.84375,0.00137
1988.08594,0.00125
1986.32813,0.00136
1984.57031,0.00131
1982.81250,0.00113
1981.05469,0.00147
1979.29688,0.00250
1977.53906,0.00341
1975.78125,0.00347
1974.02344,0.00287
1972.26563,0.00230
1970.50781,0.00215
1968.75000,0.00213
1966.99219,0.00191
1965.23438,0.00171
1963.47656,0.00161
1961.71875,0.00174
1959.96094,0.00222
1958.20313,0.00256
1956.44531,0.00250
1954.68750,0.00227
1952.92969,0.00186
1951.17188,0.00160
1949.41406,0.00205
1947.65625,0.00279
1945.89844,0.00313
1944.14063,0.00320
1942.38281,0.00338
1940.62500,0.00341
1938.86719,0.00284
1937.10938,0.00201
1935.35156,0.00170
1933.59375,0.00209
1931.83594,0.00256
1930.07813,0.00260
1928.32031,0.00222
1926.56250,0.00177
1924.80469,0.00180
1923.04688,0.00247
1921.28906,0.00303
1919.53125,0.00311
1917.77344,0.00324
1916.01563,0.00326
1914.25781,0.00277
1912.50000,0.00247
1910.74219,0.00282
1908.98438,0.00299
1907.22656,0.00251
1905.46875,0.00212
1903.71094,0.00242
1901.95313,0.00312
1900.19531,0.00322
1898.43750,0.00224
1896.67969,0.00088
1894.92188,0.00031
1893.16406,0.00087
1891.40625,0.00163
1889.64844,0.00186
1887.89063,0.00164
1886.13281,0.00111
1884.37500,0.00073
1882.61719,0.00125
1880.85938,0.00249
1879.10156,0.00356
1877.34375,0.00391
1875.58594,0.00351
1873.82813,0.00280
1872.07031,0.00245
1870.31250,0.00266
1868.55469,0.00294
1866.79688,0.00258
1865.03906,0.00188
1863.28125,0.00158
1861.52344,0.00175
1859.76563,0.00204
1858.00781,0.00233
1856.25000,0.00273
1854.49219,0.00317
1852.73438,0.00359
1850.97656,0.00399
1849.21875,0.00415
1847.46094,0.00402
1845.70313,0.00379
1843.94531,0.00325
1842.18750,0.00257
1840.42969,0.00234
1838.67188,0.00239
1836.91406,0.00247
1835.15625,0.00256
1833.39844,0.00268
1831.64063,0.00279
1829.88281,0.00276
1828.12500,0.00246
1826.36719,0.00181
1824.60938,0.00090
1822.85156,0.00049
1821.09375,0.00095
1819.33594,0.00153
1817.57813,0.00186
1815.82031,0.00225
1814.06250,0.00275
1812.30469,0.00288
1810.54688,0.00250
1808.78906,0.00208
1807.03125,0.00204
1805.27344,0.00234
1803.51563,0.00268
1801.75781,0.00290
1800.00000,0.00361
1798.24219,0.00511
1796.48438,0.00620
1794.72656,0.00602
1792.96875,0.00483
1791.21094,0.00347
1789.45313,0.00302
1787.69531,0.00352
1785.93750,0.00423
1784.17969,0.00456
1782.42188,0.00437
1780.66406,0.00381
1778.90625,0.00325
1777.14844,0.00312
1775.39063,0.00329
1773.63281,0.00312
1771.87500,0.00250
1770.11719,0.00244
1768.35938,0.00305
1766.60156,0.00355
1764.84375,0.00364
1763.08594,0.00335
1761.32813,0.00298
1759.57031,0.00304
1757.81250,0.00346
1756.05469,0.00407
1754.29688,0.00501
1752.53906,0.00624
1750.78125,0.00713
1749.02344,0.00715
1747.26563,0.00718
1745.50781,0.00771
1743.75000,0.00824
1741.99219,0.00856
1740.23438,0.00879
1738.47656,0.00899
1736.71875,0.00919
1734.96094,0.00947
1733.20313,0.00964
1731.44531,0.00944
1729.68750,0.00900
1727.92969,0.00849
1726.17188,0.00791
1724.41406,0.00733
1722.65625,0.00710
1720.89844,0.00743
1719.14063,0.00814
1717.38281,0.00857
1715.62500,0.00791
1713.86719,0.00702
1712.10938,0.00668
1710.35156,0.00658
1708.59375,0.00621
1706.83594,0.00535
1705.07813,0.00465
1703.32031,0.00481
1701.56250,0.00507
1699.80469,0.00447
1698.04688,0.00435
1696.28906,0.00530
1694.53125,0.00564
1692.77344,0.00535
1691.01563,0.00540
1689.25781,0.00584
1687.50000,0.00630
1685.74219,0.00652
1683.98438,0.00617
1682.22656,0.00589
1680.46875,0.00651
1678.71094,0.00745
1676.95313,0.00792
1675.19531,0.00761
1673.43750,0.00707
1671.67969,0.00693
1669.92188,0.00702
1668.16406,0.00707
1666.40625,0.00733
1664.64844,0.00789
1662.89063,0.00801
1661.13281,0.00715
1659.37500,0.00636
1657.61719,0.00641
1655.85938,0.00718
1654.10156,0.00826
1652.34375,0.00867
1650.58594,0.00848
1648.82813,0.00832
1647.07031,0.00803
1645.31250,0.00767
1643.55469,0.00729
1641.79688,0.00696
1640.03906,0.00710
1638.28125,0.00794
1636.52344,0.00912
1634.76563,0.00970
1633.00781,0.00938
1631.25000,0.00868
1629.49219,0.00769
1627.73438,0.00678
1625.97656,0.00648
1624.21875,0.00666
1622.46094,0.00708
1620.70313,0.00771
1618.94531,0.00822
1617.18750,0.00817
1615.42969,0.00782
1613.67188,0.00802
1611.91406,0.00871
1610.15625,0.00913
1608.39844,0.00874
1606.64063,0.00821
1604.88281,0.00807
1603.12500,0.00817
1601.36719,0.00841
1599.60938,0.00845
1597.85156,0.00817
1596.09375,0.00812
1594.33594,0.00835
1592.57813,0.00830
1590.82031,0.00782
1589.06250,0.00723
1587.30469,0.00705
1585.54688,0.00754
1583.78906,0.00834
1582.03125,0.00903
1580.27344,0.00952
1578.51563,0.00977
1576.75781,0.00937
1575.00000,0.00862
1573.24219,0.00861
1571.48438,0.00915
1569.72656,0.00959
1567.96875,0.00950
1566.21094,0.00917
1564.45313,0.00920
1562.69531,0.00996
1560.93750,0.01146
1559.17969,0.01232
1557.42188,0.01040
1555.66406,0.00936
1553.90625,0.00978
1552.14844,0.01015
1550.39063,0.01026
1548.63281,0.01084
1546.87500,0.01180
1545.11719,0.01191
1543.35938,0.01041
1541.60156,0.00860
1539.84375,0.00878
1538.08594,0.01022
1536.32813,0.01129
1534.57031,0.01200
1532.81250,0.01256
1531.05469,0.01319
1529.29688,0.01373
1527.53906,0.01411
1525.78125,0.01461
1524.02344,0.01494
1522.26563,0.01463
1520.50781,0.01467
1518.75000,0.01571
1516.99219,0.01649
1515.23438,0.01651
1513.47656,0.01649
1511.71875,0.01679
1509.96094,0.01732
1508.20313,0.01765
1506.44531,0.01741
1504.68750,0.01774
1502.92969,0.01880
1501.17188,0.02021
1499.41406,0.02177
1497.65625,0.02266
1495.89844,0.02272
1494.14063,0.02315
1492.38281,0.02430
1490.62500,0.02579
1488.86719,0.02688
1487.10938,0.02759
1485.35156,0.02888
1483.59375,0.03084
1481.83594,0.03289
1480.07813,0.03479
1478.32031,0.03686
1476.56250,0.03918
1474.80469,0.04118
1473.04688,0.04253
1471.28906,0.04401
1469.53125,0.04587
1467.77344,0.04777
1466.01563,0.04965
1464.25781,0.05138
1462.50000,0.05268
1460.74219,0.05364
1458.98438,0.05433
1457.22656,0.05491
1455.46875,0.05666
1453.71094,0.05928
1451.95313,0.06171
1450.19531,0.06391
1448.43750,0.06636
1446.67969,0.06897
1444.92188,0.07117
1443.16406,0.07340
1441.40625,0.07668
1439.64844,0.08127
1437.89063,0.08710
1436.13281,0.09305
1434.37500,0.09661
1432.61719,0.09835
1430.85938,0.10019
1429.10156,0.10260
1427.34375,0.10443
1425.58594,0.10492
1423.82813,0.10431
1422.07031,0.10293
1420.31250,0.10086
1418.55469,0.09850
1416.79688,0.09640
1415.03906,0.09396
1413.28125,0.09032
1411.52344,0.08567
1409.76563,0.08090
1408.00781,0.07647
1406.25000,0.07224
1404.49219,0.06884
1402.73438,0.06711
1400.97656,0.06630
1399.21875,0.06510
1397.46094,0.06303
1395.70313,0.06032
1393.94531,0.05765
1392.18750,0.05552
1390.42969,0.05361
1388.67188,0.05198
1386.91406,0.05107
1385.15625,0.05024
1383.39844,0.04903
1381.64063,0.04793
1379.88281,0.04711
1378.12500,0.04624
1376.36719,0.04516
1374.60938,0.04361
1372.85156,0.04159
1371.09375,0.03990
1369.33594,0.03893
1367.57813,0.03837
1365.82031,0.03788
1364.06250,0.03750
1362.30469,0.03719
1360.54688,0.03683
1358.78906,0.03660
1357.03125,0.03663
1355.27344,0.03655
1353.51563,0.03584
1351.75781,0.03476
1350.00000,0.03393
1348.24219,0.03334
1346.48438,0.03289
1344.72656,0.03302
1342.96875,0.03392
1341.21094,0.03504
1339.45313,0.03611
1337.69531,0.03766
1335.93750,0.03965
1334.17969,0.04128
1332.42188,0.04239
1330.66406,0.04302
1328.90625,0.04284
1327.14844,0.04217
1325.39063,0.04169
1323.63281,0.04128
1321.87500,0.04041
1320.11719,0.03889
1318.35938,0.03690
1316.60156,0.03506
1314.84375,0.03386
1313.08594,0.03311
1311.32813,0.03249
1309.57031,0.03199
1307.81250,0.03164
1306.05469,0.03112
1304.29688,0.03004
1302.53906,0.02868
1300.78125,0.02760
1299.02344,0.02670
1297.26563,0.02584
1295.50781,0.02550
1293.75000,0.02558
1291.99219,0.02503
1290.23438,0.02378
1288.47656,0.02281
1286.71875,0.02244
1284.96094,0.02253
1283.20313,0.02331
1281.44531,0.02453
1279.68750,0.02548
1277.92969,0.02636
1276.17188,0.02791
1274.41406,0.02990
1272.65625,0.03172
1270.89844,0.03353
1269.14063,0.03591
1267.38281,0.03888
1265.62500,0.04211
1263.86719,0.04514
1262.10938,0.04742
1260.35156,0.04907
1258.59375,0.05054
1256.83594,0.05139
1255.07813,0.05137
1253.32031,0.05157
1251.56250,0.05248
1249.80469,0.05338
1248.04688,0.05399
1246.28906,0.05432
1244.53125,0.05407
1242.77344,0.05345
1241.01563,0.05276
1239.25781,0.05196
1237.50000,0.05107
1235.74219,0.05009
1233.98438,0.04866
1232.22656,0.04633
1230.46875,0.04307
1228.71094,0.03946
1226.95313,0.03628
1225.19531,0.03359
1223.43750,0.03107
1221.67969,0.02893
1219.92188,0.02743
1218.16406,0.02631
1216.40625,0.02548
1214.64844,0.02511
1212.89063,0.02522
1211.13281,0.02574
1209.37500,0.02671
1207.61719,0.02786
1205.85938,0.02852
1204.10156,0.02852
1202.34375,0.02856
1200.58594,0.02903
1198.82813,0.02948
1197.07031,0.02938
1195.31250,0.02869
1193.55469,0.02785
1191.79688,0.02751
1190.03906,0.02765
1188.28125,0.02731
1186.52344,0.02593
1184.76563,0.02426
1183.00781,0.02354
1181.25000,0.02396
1179.49219,0.02470
1177.73438,0.02519
1175.97656,0.02517
1174.21875,0.02472
1172.46094,0.02437
1170.70313,0.02426
1168.94531,0.02395
1167.18750,0.02355
1165.42969,0.02342
1163.67188,0.02345
1161.91406,0.02335
1160.15625,0.02300
1158.39844,0.02223
1156.64063,0.02090
1154.88281,0.01938
1153.12500,0.01838
1151.36719,0.01817
1149.60938,0.01858
1147.85156,0.01932
1146.09375,0.02016
1144.33594,0.02078
1142.57813,0.02059
1140.82031,0.01947
1139.06250,0.01827
1137.30469,0.01801
1135.54688,0.01865
1133.78906,0.01922
1132.03125,0.01933
1130.27344,0.01973
1128.51563,0.02075
1126.75781,0.02174
1125.00000,0.02238
1123.24219,0.02305
1121.48438,0.02394
1119.72656,0.02485
1117.96875,0.02582
1116.21094,0.02707
1114.45313,0.02831
1112.69531,0.02926
1110.93750,0.03030
1109.17969,0.03175
1107.42188,0.03335
1105.66406,0.03463
1103.90625,0.03515
1102.14844,0.03503
1100.39063,0.03507
1098.63281,0.03571
1096.87500,0.03643
1095.11719,0.03642
1093.35938,0.03557
1091.60156,0.03455
1089.84375,0.03383
1088.08594,0.03354
1086.32813,0.03378
1084.57031,0.03391
1082.81250,0.03303
1081.05469,0.03140
1079.29688,0.03015
1077.53906,0.02991
1075.78125,0.03033
1074.02344,0.03038
1072.26563,0.02947
1070.50781,0.02831
1068.75000,0.02792
1066.99219,0.02807
1065.23438,0.02754
1063.47656,0.02611
1061.71875,0.02521
1059.96094,0.02581
1058.20313,0.02722
1056.44531,0.02845
1054.68750,0.02933
1052.92969,0.02995
1051.17188,0.03017
1049.41406,0.03030
1047.65625,0.03061
1045.89844,0.03056
1044.14063,0.02991
1042.38281,0.02938
1040.62500,0.02922
1038.86719,0.02884
1037.10938,0.02806
1035.35156,0.02749
1033.59375,0.02747
1031.83594,0.02752
1030.07813,0.02735
1028.32031,0.02744
1026.56250,0.02810
1024.80469,0.02899
1023.04688,0.02949
1021.28906,0.02943
1019.53125,0.02942
1017.77344,0.02987
1016.01563,0.03021
1014.25781,0.03006
1012.50000,0.02974
1010.74219,0.02944
1008.98438,0.02900
1007.22656,0.02846
1005.46875,0.02816
1003.71094,0.02818
1001.95313,0.02823
1000.19531,0.02834
998.43750,0.02869
996.67969,0.02908
994.92188,0.02923
993.16406,0.02907
991.40625,0.02895
989.64844,0.02943
987.89063,0.03050
986.13281,0.03176
984.37500,0.03256
982.61719,0.03269
980.85938,0.03352
979.10156,0.03593
977.34375,0.03836
975.58594,0.03966
973.82813,0.04072
972.07031,0.04247
970.31250,0.04453
968.55469,0.04597
966.79688,0.04662
965.03906,0.04684
963.28125,0.04603
961.52344,0.04376
959.76563,0.04163
958.00781,0.04124
956.25000,0.04166
954.49219,0.04107
952.73438,0.03945
950.97656,0.03832
949.21875,0.03850
947.46094,0.03867
945.70313,0.03721
943.94531,0.03468
942.18750,0.03278
940.42969,0.03208
938.67188,0.03199
936.91406,0.03173
935.15625,0.03105
933.39844,0.03036
931.64063,0.03035
929.88281,0.03089
928.12500,0.03139
926.36719,0.03154
924.60938,0.03106
922.85156,0.03013
921.09375,0.02953
919.33594,0.02926
917.57813,0.02854
915.82031,0.02702
914.06250,0.02535
912.30469,0.02442
910.54688,0.02420
908.78906,0.02408
907.03125,0.02376
905.27344,0.02326
903.51563,0.02273
901.75781,0.02193
900.00000,0.02073
898.24219,0.01996
896.48438,0.02015
894.72656,0.02093
892.96875,0.02168
891.21094,0.02203
889.45313,0.02186
887.69531,0.02144
885.93750,0.02209
884.17969,0.02481
882.42188,0.02955
880.66406,0.03686
878.90625,0.04692
877.14844,0.05775
875.39063,0.06620
873.63281,0.06909
871.87500,0.06449
870.11719,0.05408
868.35938,0.04272
866.60156,0.03441
864.84375,0.02942
863.08594,0.02629
861.32813,0.02408
859.57031,0.02232
857.81250,0.02048
856.05469,0.01768
854.29688,0.01461
852.53906,0.01476
850.78125,0.01949
849.02344,0.02506
847.26563,0.02744
845.50781,0.02616
843.75000,0.02311
841.99219,0.02081
840.23438,0.02137
838.47656,0.02375
836.71875,0.02496
834.96094,0.02504
833.20313,0.02487
831.44531,0.02297
829.68750,0.02020
827.92969,0.01957
826.17188,0.01991
824.41406,0.01871
822.65625,0.01769
820.89844,0.01899
819.14063,0.02157
817.38281,0.02354
815.62500,0.02374
813.86719,0.02204
812.10938,0.01960
810.35156,0.01745
808.59375,0.01557
806.83594,0.01303
805.07813,0.00989
803.32031,0.00865
801.56250,0.01107
799.80469,0.01465
798.04688,0.01530
796.28906,0.01221
794.53125,0.00894
792.77344,0.01033
791.01563,0.01586
789.25781,0.01928
787.50000,0.01937
785.74219,0.02089
783.98438,0.02386
782.22656,0.02508
780.46875,0.02465
778.71094,0.02367
776.95313,0.02282
775.19531,0.02062
773.43750,0.01449
771.67969,0.00809
769.92188,0.00753
768.16406,0.01055
766.40625,0.01231
764.64844,0.01588
762.89063,0.02405
761.13281,0.03106
759.37500,0.03142
757.61719,0.02568
755.85938,0.01696
754.10156,0.00929
752.34375,0.00478
750.58594,0.00282
748.82813,0.00241
747.07031,0.00147
745.31250,0.00205
743.55469,0.00846
741.79688,0.01489
740.03906,0.01541
738.28125,0.01661
736.52344,0.02152
734.76563,0.02383
733.00781,0.02582
731.25000,0.03322
729.49219,0.03681
727.73438,0.02928
725.97656,0.01795
724.21875,0.01221
722.46094,0.01781
720.70313,0.03211
718.94531,0.04312
717.18750,0.05023
715.42969,0.05988
713.67188,0.06366
711.91406,0.05159
710.15625,0.03136
708.39844,0.01411
706.64063,0.00464
704.88281,0.00633
703.12500,0.02252
701.36719,0.04510
699.60938,0.05285
697.85156,0.04468
696.09375,0.04921
694.33594,0.06940
692.57813,0.07584
690.82031,0.05979
689.06250,0.04987
687.30469,0.06357
685.54688,0.06800
683.78906,0.03895
682.03125,0.00282
680.27344,-0.01628
678.51563,-0.01688
