3997.26563,0.00902
3995.50781,0.01237
3993.75000,0.01345
3991.99219,0.01203
3990.23438,0.01090
3988.47656,0.01103
3986.71875,0.01067
3984.96094,0.00906
3983.20313,0.00706
3981.44531,0.00564
3979.68750,0.00500
3977.92969,0.00460
3976.17188,0.00404
3974.41406,0.00367
3972.65625,0.00443
3970.89844,0.00621
3969.14063,0.00734
3967.38281,0.00663
3965.62500,0.00505
3963.86719,0.00460
3962.10938,0.00616
3960.35156,0.00806
3958.59375,0.00806
3956.83594,0.00652
3955.07813,0.00525
3953.32031,0.00550
3951.56250,0.00717
3949.80469,0.00779
3948.04688,0.00560
3946.28906,0.00335
3944.53125,0.00308
3942.77344,0.00337
3941.01563,0.00373
3939.25781,0.00458
3937.50000,0.00553
3935.74219,0.00677
3933.98438,0.00847
3932.22656,0.00990
3930.46875,0.01047
3928.71094,0.01041
3926.95313,0.00968
3925.19531,0.00797
3923.43750,0.00605
3921.67969,0.00532
3919.92188,0.00540
3918.16406,0.00500
3916.40625,0.00469
3914.64844,0.00568
3912.89063,0.00674
3911.13281,0.00670
3909.37500,0.00638
3907.61719,0.00630
3905.85938,0.00599
3904.10156,0.00584
3902.34375,0.00581
3900.58594,0.00388
3898.82813,0.00149
3897.07031,0.00233
3895.31250,0.00524
3893.55469,0.00700
3891.79688,0.00663
3890.03906,0.00583
3888.28125,0.00597
3886.52344,0.00640
3884.76563,0.00652
3883.00781,0.00672
3881.25000,0.00711
3879.49219,0.00737
3877.73438,0.00753
3875.97656,0.00740
3874.21875,0.00619
3872.46094,0.00335
3870.70313,0.00086
3868.94531,0.00253
3867.18750,0.00670
3865.42969,0.00869
3863.67188,0.00792
3861.91406,0.00604
3860.15625,0.00443
3858.39844,0.00422
3856.64063,0.00559
3854.88281,0.00669
3853.12500,0.00555
3851.36719,0.00518
3849.60938,0.00659
3847.85156,0.00781
3846.09375,0.00874
3844.33594,0.00939
3842.57813,0.00880
3840.82031,0.00695
3839.06250,0.00578
3837.30469,0.00569
3835.54688,0.00501
3833.78906,0.00505
3832.03125,0.00689
3830.27344,0.00813
3828.51563,0.00758
3826.75781,0.00700
3825.00000,0.00670
3823.24219,0.00528
3821.48438,0.00317
3819.72656,0.00307
3817.96875,0.00484
3816.21094,0.00724
3814.45313,0.00993
3812.69531,0.01044
3810.93750,0.00812
3809.17969,0.00515
3807.42188,0.00345
3805.66406,0.00296
3803.90625,0.00266
3802.14844,0.00242
3800.39063,0.00364
3798.63281,0.00644
3796.87500,0.00835
3795.11719,0.00863
3793.35938,0.00829
3791.60156,0.00725
3789.84375,0.00529
3788.08594,0.00406
3786.32813,0.00513
3784.57031,0.00742
3782.81250,0.00838
3781.05469,0.00774
3779.29688,0.00711
3777.53906,0.00684
3775.78125,0.00589
3774.02344,0.00474
3772.26563,0.00484
3770.50781,0.00610
3768.75000,0.00701
3766.99219,0.00778
3765.23438,0.00894
3763.47656,0.00875
3761.71875,0.00667
3759.96094,0.00434
3758.20313,0.00333
3756.44531,0.00335
3754.68750,0.00312
3752.92969,0.00253
3751.17188,0.00304
3749.41406,0.00562
3747.65625,0.00715
3745.89844,0.00671
3744.14063,0.00660
3742.38281,0.00746
3740.62500,0.00749
3738.86719,0.00693
3737.10938,0.00628
3735.35156,0.00508
3733.59375,0.00376
3731.83594,0.00314
3730.07813,0.00255
3728.32031,0.00143
3726.56250,0.00040
3724.80469,0.00092
3723.04688,0.00265
3721.28906,0.00381
3719.53125,0.00420
3717.77344,0.00451
3716.01563,0.00516
3714.25781,0.00604
3712.50000,0.00674
3710.74219,0.00716
3708.98438,0.00740
3707.22656,0.00708
3705.46875,0.00590
3703.71094,0.00396
3701.95313,0.00203
3700.19531,0.00160
3698.43750,0.00291
3696.67969,0.00477
3694.92188,0.00626
3693.16406,0.00701
3691.40625,0.00713
3689.64844,0.00700
3687.89063,0.00640
3686.13281,0.00551
3684.37500,0.00533
3682.61719,0.00608
3680.85938,0.00748
3679.10156,0.00890
3677.34375,0.00913
3675.58594,0.00790
3673.82813,0.00740
3672.07031,0.00773
3670.31250,0.00716
3668.55469,0.00626
3666.79688,0.00692
3665.03906,0.00808
3663.28125,0.00831
3661.52344,0.00796
3659.76563,0.00771
3658.00781,0.00713
3656.25000,0.00608
3654.49219,0.00531
3652.73438,0.00532
3650.97656,0.00611
3649.21875,0.00735
3647.46094,0.00873
3645.70313,0.00935
3643.94531,0.00818
3642.18750,0.00612
3640.42969,0.00508
3638.67188,0.00558
3636.91406,0.00681
3635.15625,0.00813
3633.39844,0.00884
3631.64063,0.00903
3629.88281,0.01003
3628.12500,0.01103
3626.36719,0.00932
3624.60938,0.00704
3622.85156,0.00621
3621.09375,0.00604
3619.33594,0.00511
3617.57813,0.00483
3615.82031,0.00676
3614.06250,0.00947
3612.30469,0.01124
3610.54688,0.01102
3608.78906,0.00912
3607.03125,0.00683
3605.27344,0.00501
3603.51563,0.00407
3601.75781,0.00449
3600.00000,0.00618
3598.24219,0.00830
3596.48438,0.01009
3594.72656,0.01137
3592.96875,0.01223
3591.21094,0.01233
3589.45313,0.01129
3587.69531,0.00981
3585.93750,0.00989
3584.17969,0.01138
3582.42188,0.01211
3580.66406,0.01163
3578.90625,0.01090
3577.14844,0.01047
3575.39063,0.01064
3573.63281,0.01198
3571.87500,0.01407
3570.11719,0.01516
3568.35938,0.01373
3566.60156,0.01042
3564.84375,0.00803
3563.08594,0.00733
3561.32813,0.00756
3559.57031,0.00886
3557.81250,0.01172
3556.05469,0.01425
3554.29688,0.01345
3552.53906,0.00989
3550.78125,0.00739
3549.02344,0.00799
3547.26563,0.01090
3545.50781,0.01342
3543.75000,0.01314
3541.99219,0.01115
3540.23438,0.00936
3538.47656,0.00836
3536.71875,0.00775
3534.96094,0.00682
3533.20313,0.00573
3531.44531,0.00514
3529.68750,0.00540
3527.92969,0.00686
3526.17188,0.00883
3524.41406,0.00962
3522.65625,0.00931
3520.89844,0.00905
3519.14063,0.00800
3517.38281,0.00582
3515.62500,0.00501
3513.86719,0.00656
3512.10938,0.00850
3510.35156,0.01068
3508.59375,0.01427
3506.83594,0.01741
3505.07813,0.01779
3503.32031,0.01523
3501.56250,0.01083
3499.80469,0.00779
3498.04688,0.00815
3496.28906,0.00929
3494.53125,0.00868
3492.77344,0.00819
3491.01563,0.00933
3489.25781,0.01069
3487.50000,0.01146
3485.74219,0.01118
3483.98438,0.00913
3482.22656,0.00750
3480.46875,0.00914
3478.71094,0.01162
3476.95313,0.01145
3475.19531,0.00986
3473.43750,0.00923
3471.67969,0.01003
3469.92188,0.01191
3468.16406,0.01349
3466.40625,0.01298
3464.64844,0.01105
3462.89063,0.00983
3461.13281,0.00990
3459.37500,0.01107
3457.61719,0.01318
3455.85938,0.01476
3454.10156,0.01456
3452.34375,0.01313
3450.58594,0.01164
3448.82813,0.01194
3447.07031,0.01526
3445.31250,0.01917
3443.55469,0.02101
3441.79688,0.02121
3440.03906,0.02000
3438.28125,0.01685
3436.52344,0.01352
3434.76563,0.01243
3433.00781,0.01247
3431.25000,0.01144
3429.49219,0.01037
3427.73438,0.01050
3425.97656,0.01066
3424.21875,0.00978
3422.46094,0.00838
3420.70313,0.00809
3418.94531,0.00989
3417.18750,0.01211
3415.42969,0.01275
3413.67188,0.01183
3411.91406,0.01042
3410.15625,0.00978
3408.39844,0.01049
3406.64063,0.01192
3404.88281,0.01364
3403.12500,0.01541
3401.36719,0.01603
3399.60938,0.01473
3397.85156,0.01259
3396.09375,0.01145
3394.33594,0.01230
3392.57813,0.01450
3390.82031,0.01640
3389.06250,0.01706
3387.30469,0.01657
3385.54688,0.01551
3383.78906,0.01545
3382.03125,0.01691
3380.27344,0.01767
3378.51563,0.01692
3376.75781,0.01678
3375.00000,0.01718
3373.24219,0.01617
3371.48438,0.01475
3369.72656,0.01454
3367.96875,0.01497
3366.21094,0.01586
3364.45313,0.01709
3362.69531,0.01705
3360.93750,0.01598
3359.17969,0.01665
3357.42188,0.01974
3355.66406,0.02276
3353.90625,0.02329
3352.14844,0.02135
3350.39063,0.01916
3348.63281,0.01870
3346.87500,0.02016
3345.11719,0.02249
3343.35938,0.02392
3341.60156,0.02349
3339.84375,0.02246
3338.08594,0.02284
3336.32813,0.02465
3334.57031,0.02691
3332.81250,0.02960
3331.05469,0.03182
3329.29688,0.03192
3327.53906,0.03152
3325.78125,0.03257
3324.02344,0.03343
3322.26563,0.03332
3320.50781,0.03394
3318.75000,0.03579
3316.99219,0.03817
3315.23438,0.04045
3313.47656,0.04220
3311.71875,0.04374
3309.96094,0.04569
3308.20313,0.04811
3306.44531,0.05090
3304.68750,0.05363
3302.92969,0.05537
3301.17188,0.05606
3299.41406,0.05718
3297.65625,0.05917
3295.89844,0.06090
3294.14063,0.06151
3292.38281,0.06014
3290.62500,0.05639
3288.86719,0.05224
3287.10938,0.05005
3285.35156,0.05013
3283.59375,0.05159
3281.83594,0.05312
3280.07813,0.05317
3278.32031,0.05126
3276.56250,0.04874
3274.80469,0.04708
3273.04688,0.04649
3271.28906,0.04623
3269.53125,0.04543
3267.77344,0.04423
3266.01563,0.04394
3264.25781,0.04503
3262.50000,0.04565
3260.74219,0.04390
3258.98438,0.04058
3257.22656,0.03774
3255.46875,0.03601
3253.71094,0.03520
3251.95313,0.03508
3250.19531,0.03509
3248.43750,0.03475
3246.67969,0.03413
3244.92188,0.03340
3243.16406,0.03185
3241.40625,0.02924
3239.64844,0.02745
3237.89063,0.02825
3236.13281,0.03063
3234.37500,0.03181
3232.61719,0.03020
3230.85938,0.02743
3229.10156,0.02581
3227.34375,0.02489
3225.58594,0.02394
3223.82813,0.02404
3222.07031,0.02551
3220.31250,0.02685
3218.55469,0.02688
3216.79688,0.02586
3215.03906,0.02500
3213.28125,0.02482
3211.52344,0.02478
3209.76563,0.02428
3208.00781,0.02367
3206.25000,0.02404
3204.49219,0.02565
3202.73438,0.02690
3200.97656,0.02618
3199.21875,0.02439
3197.46094,0.02351
3195.70313,0.02363
3193.94531,0.02343
3192.18750,0.02247
3190.42969,0.02154
3188.67188,0.02140
3186.91406,0.02180
3185.15625,0.02218
3183.39844,0.02266
3181.64063,0.02291
3179.88281,0.02185
3178.12500,0.01960
3176.36719,0.01788
3174.60938,0.01787
3172.85156,0.01904
3171.09375,0.01962
3169.33594,0.01849
3167.57813,0.01704
3165.82031,0.01742
3164.06250,0.01935
3162.30469,0.02046
3160.54688,0.01980
3158.78906,0.01886
3157.03125,0.01886
3155.27344,0.01929
3153.51563,0.01949
3151.75781,0.01932
3150.00000,0.01884
3148.24219,0.01845
3146.48438,0.01836
3144.72656,0.01830
3142.96875,0.01796
3141.21094,0.01743
3139.45313,0.01728
3137.69531,0.01779
3135.93750,0.01863
3134.17969,0.01940
3132.42188,0.01946
3130.66406,0.01854
3128.90625,0.01757
3127.14844,0.01728
3125.39063,0.01719
3123.63281,0.01707
3121.87500,0.01694
3120.11719,0.01654
3118.35938,0.01632
3116.60156,0.01704
3114.84375,0.01816
3113.08594,0.01905
3111.32813,0.01996
3109.57031,0.02078
3107.81250,0.02098
3106.05469,0.02066
3104.29688,0.02054
3102.53906,0.02072
3100.78125,0.02048
3099.02344,0.01972
3097.26563,0.01902
3095.50781,0.01905
3093.75000,0.02048
3091.99219,0.02307
3090.23438,0.02516
3088.47656,0.02521
3086.71875,0.02343
3084.96094,0.02149
3083.20313,0.02097
3081.44531,0.02200
3079.68750,0.02318
3077.92969,0.02335
3076.17188,0.02293
3074.41406,0.02264
3072.65625,0.02245
3070.89844,0.02225
3069.14063,0.02221
3067.38281,0.02216
3065.62500,0.02163
3063.86719,0.02068
3062.10938,0.01970
3060.35156,0.01911
3058.59375,0.01943
3056.83594,0.02015
3055.07813,0.01997
3053.32031,0.01896
3051.56250,0.01822
3049.80469,0.01798
3048.04688,0.01777
3046.28906,0.01733
3044.53125,0.01690
3042.77344,0.01680
3041.01563,0.01692
3039.25781,0.01680
3037.50000,0.01661
3035.74219,0.01701
3033.98438,0.01745
3032.22656,0.01674
3030.46875,0.01552
3028.71094,0.01514
3026.95313,0.01573
3025.19531,0.01663
3023.43750,0.01684
3021.67969,0.01598
3019.92188,0.01505
3018.16406,0.01485
3016.40625,0.01532
3014.64844,0.01638
3012.89063,0.01754
3011.13281,0.01764
3009.37500,0.01661
3007.61719,0.01538
3005.85938,0.01443
3004.10156,0.01406
3002.34375,0.01451
3000.58594,0.01523
2998.82813,0.01538
2997.07031,0.01456
2995.31250,0.01322
2993.55469,0.01244
2991.79688,0.01278
2990.03906,0.01401
2988.28125,0.01536
2986.52344,0.01593
2984.76563,0.01584
2983.00781,0.01597
2981.25000,0.01647
2979.49219,0.01653
2977.73438,0.01618
2975.97656,0.01648
2974.21875,0.01746
2972.46094,0.01849
2970.70313,0.01986
2968.94531,0.02172
2967.18750,0.02370
2965.42969,0.02543
2963.67188,0.02664
2961.91406,0.02770
2960.15625,0.02873
2958.39844,0.02875
2956.64063,0.02804
2954.88281,0.02860
2953.12500,0.03127
2951.36719,0.03454
2949.60938,0.03664
2947.85156,0.03759
2946.09375,0.03825
2944.33594,0.03902
2942.57813,0.04034
2940.82031,0.04273
2939.06250,0.04579
2937.30469,0.04830
2935.54688,0.04950
2933.78906,0.04999
2932.03125,0.05048
2930.27344,0.05050
2928.51563,0.04946
2926.75781,0.04788
2925.00000,0.04651
2923.24219,0.04533
2921.48438,0.04415
2919.72656,0.04344
2917.96875,0.04309
2916.21094,0.04245
2914.45313,0.04196
2912.69531,0.04185
2910.93750,0.04078
2909.17969,0.03822
2907.42188,0.03562
2905.66406,0.03414
2903.90625,0.03325
2902.14844,0.03220
2900.39063,0.03169
2898.63281,0.03237
2896.87500,0.03307
2895.11719,0.03253
2893.35938,0.03135
2891.60156,0.03058
2889.84375,0.02975
2888.08594,0.02822
2886.32813,0.02709
2884.57031,0.02739
2882.81250,0.02809
2881.05469,0.02825
2879.29688,0.02859
2877.53906,0.02996
2875.78125,0.03202
2874.02344,0.03352
2872.26563,0.03388
2870.50781,0.03433
2868.75000,0.03567
2866.99219,0.03672
2865.23438,0.03689
2863.47656,0.03698
2861.71875,0.03696
2859.96094,0.03660
2858.20313,0.03673
2856.44531,0.03758
2854.68750,0.03833
2852.92969,0.03837
2851.17188,0.03734
2849.41406,0.03537
2847.65625,0.03350
2845.89844,0.03188
2844.14063,0.02915
2842.38281,0.02530
2840.62500,0.02251
2838.86719,0.02166
2837.10938,0.02157
2835.35156,0.02152
2833.59375,0.02154
2831.83594,0.02113
2830.07813,0.02018
2828.32031,0.01962
2826.56250,0.01975
2824.80469,0.01979
2823.04688,0.01953
2821.28906,0.01942
2819.53125,0.01955
2817.77344,0.01939
2816.01563,0.01838
2814.25781,0.01704
2812.50000,0.01628
2810.74219,0.01599
2808.98438,0.01579
2807.22656,0.01593
2805.46875,0.01642
2803.71094,0.01663
2801.95313,0.01647
2800.19531,0.01642
2798.43750,0.01640
2796.67969,0.01620
2794.92188,0.01600
2793.16406,0.01570
2791.40625,0.01560
2789.64844,0.01642
2787.89063,0.01731
2786.13281,0.01692
2784.37500,0.01589
2782.61719,0.01530
2780.85938,0.01491
2779.10156,0.01456
2777.34375,0.01478
2775.58594,0.01551
2773.82813,0.01594
2772.07031,0.01562
2770.31250,0.01507
2768.55469,0.01502
2766.79688,0.01556
2765.03906,0.01604
2763.28125,0.01561
2761.52344,0.01467
2759.76563,0.01471
2758.00781,0.01563
2756.25000,0.01577
2754.49219,0.01484
2752.73438,0.01423
2750.97656,0.01465
2749.21875,0.01539
2747.46094,0.01579
2745.70313,0.01611
2743.94531,0.01647
2742.18750,0.01622
2740.42969,0.01510
2738.67188,0.01360
2736.91406,0.01252
2735.15625,0.01219
2733.39844,0.01214
2731.64063,0.01199
2729.88281,0.01186
2728.12500,0.01194
2726.36719,0.01234
2724.60938,0.01278
2722.85156,0.01286
2721.09375,0.01283
2719.33594,0.01309
2717.57813,0.01375
2715.82031,0.01452
2714.06250,0.01479
2712.30469,0.01464
2710.54688,0.01435
2708.78906,0.01353
2707.03125,0.01246
2705.27344,0.01219
2703.51563,0.01247
2701.75781,0.01258
2700.00000,0.01266
2698.24219,0.01282
2696.48438,0.01303
2694.72656,0.01344
2692.96875,0.01396
2691.21094,0.01425
2689.45313,0.01389
2687.69531,0.01295
2685.93750,0.01228
2684.17969,0.01230
2682.42188,0.01244
2680.66406,0.01250
2678.90625,0.01279
2677.14844,0.01308
2675.39063,0.01302
2673.63281,0.01275
2671.87500,0.01253
2670.11719,0.01259
2668.35938,0.01297
2666.60156,0.01335
2664.84375,0.01331
2663.08594,0.01288
2661.32813,0.01252
2659.57031,0.01254
2657.81250,0.01262
2656.05469,0.01244
2654.29688,0.01221
2652.53906,0.01214
2650.78125,0.01226
2649.02344,0.01296
2647.26563,0.01422
2645.50781,0.01478
2643.75000,0.01398
2641.99219,0.01297
2640.23438,0.01275
2638.47656,0.01292
2636.71875,0.01278
2634.96094,0.01244
2633.20313,0.01227
2631.44531,0.01208
2629.68750,0.01182
2627.92969,0.01209
2626.17188,0.01277
2624.41406,0.01288
2622.65625,0.01215
2620.89844,0.01119
2619.14063,0.01083
2617.38281,0.01168
2615.62500,0.01314
2613.86719,0.01388
2612.10938,0.01351
2610.35156,0.01275
2608.59375,0.01205
2606.83594,0.01151
2605.07813,0.01123
2603.32031,0.01116
2601.56250,0.01125
2599.80469,0.01143
2598.04688,0.01147
2596.28906,0.01160
2594.53125,0.01229
2592.77344,0.01321
2591.01563,0.01348
2589.25781,0.01298
2587.50000,0.01235
2585.74219,0.01220
2583.98438,0.01235
2582.22656,0.01228
2580.46875,0.01193
2578.71094,0.01195
2576.95313,0.01262
2575.19531,0.01298
2573.43750,0.01219
2571.67969,0.01128
2569.92188,0.01133
2568.16406,0.01157
2566.40625,0.01108
2564.64844,0.01025
2562.89063,0.00994
2561.13281,0.01058
2559.37500,0.01180
2557.61719,0.01264
2555.85938,0.01264
2554.10156,0.01224
2552.34375,0.01182
2550.58594,0.01123
2548.82813,0.01063
2547.07031,0.01039
2545.31250,0.01025
2543.55469,0.01014
2541.79688,0.01070
2540.03906,0.01183
2538.28125,0.01237
2536.52344,0.01224
2534.76563,0.01240
2533.00781,0.01263
2531.25000,0.01217
2529.49219,0.01137
2527.73438,0.01087
2525.97656,0.01058
2524.21875,0.01028
2522.46094,0.01007
2520.70313,0.01000
2518.94531,0.01041
2517.18750,0.01160
2515.42969,0.01234
2513.67188,0.01163
2511.91406,0.01089
2510.15625,0.01111
2508.39844,0.01125
2506.64063,0.01086
2504.88281,0.01073
2503.12500,0.01107
2501.36719,0.01119
2499.60938,0.01088
2497.85156,0.01066
2496.09375,0.01096
2494.33594,0.01151
2492.57813,0.01174
2490.82031,0.01150
2489.06250,0.01124
2487.30469,0.01116
2485.54688,0.01093
2483.78906,0.01057
2482.03125,0.01040
2480.27344,0.01035
2478.51563,0.01016
2476.75781,0.00994
2475.00000,0.00986
2473.24219,0.01016
2471.48438,0.01095
2469.72656,0.01142
2467.96875,0.01096
2466.21094,0.01048
2464.45313,0.01086
2462.69531,0.01142
2460.93750,0.01119
2459.17969,0.01031
2457.42188,0.00971
2455.66406,0.00979
2453.90625,0.01007
2452.14844,0.01012
2450.39063,0.01022
2448.63281,0.01076
2446.87500,0.01139
2445.11719,0.01143
2443.35938,0.01104
2441.60156,0.01072
2439.84375,0.01037
2438.08594,0.00993
2436.32813,0.00962
2434.57031,0.00986
2432.81250,0.01101
2431.05469,0.01211
2429.29688,0.01189
2427.53906,0.01114
2425.78125,0.01109
2424.02344,0.01107
2422.26563,0.01052
2420.50781,0.01040
2418.75000,0.01106
2416.99219,0.01137
2415.23438,0.01087
2413.47656,0.01043
2411.71875,0.01047
2409.96094,0.01077
2408.20313,0.01131
2406.44531,0.01178
2404.68750,0.01163
2402.92969,0.01086
2401.17188,0.01022
2399.41406,0.01036
2397.65625,0.01060
2395.89844,0.00984
2394.14063,0.00876
2392.38281,0.00891
2390.62500,0.01002
2388.86719,0.01059
2387.10938,0.01011
2385.35156,0.00932
2383.59375,0.00915
2381.83594,0.00973
2380.07813,0.01041
2378.32031,0.01054
2376.56250,0.01021
2374.80469,0.01017
2373.04688,0.01018
2371.28906,0.00864
2369.53125,0.00646
2367.77344,0.00671
2366.01563,0.00769
2364.25781,0.00467
2362.50000,0.00028
2360.74219,0.00144
2358.98438,0.00738
2357.22656,0.01240
2355.46875,0.01500
2353.71094,0.01538
2351.95313,0.01308
2350.19531,0.01003
2348.43750,0.00819
2346.67969,0.00786
2344.92188,0.00877
2343.16406,0.01021
2341.40625,0.01123
2339.64844,0.01128
2337.89063,0.01069
2336.13281,0.01055
2334.37500,0.01079
2332.61719,0.01105
2330.85938,0.01224
2329.10156,0.01381
2327.34375,0.01375
2325.58594,0.01226
2323.82813,0.01104
2322.07031,0.01111
2320.31250,0.01262
2318.55469,0.01445
2316.79688,0.01471
2315.03906,0.01301
2313.28125,0.01111
2311.52344,0.01033
2309.76563,0.00987
2308.00781,0.00904
2306.25000,0.00855
2304.49219,0.00880
2302.73438,0.00909
2300.97656,0.00915
2299.21875,0.00957
2297.46094,0.01032
2295.70313,0.01072
2293.94531,0.01088
2292.18750,0.01121
2290.42969,0.01151
2288.67188,0.01158
2286.91406,0.01150
2285.15625,0.01128
2283.39844,0.01103
2281.64063,0.01101
2279.88281,0.01121
2278.12500,0.01152
2276.36719,0.01168
2274.60938,0.01126
2272.85156,0.01039
2271.09375,0.00979
2269.33594,0.00982
2267.57813,0.01050
2265.82031,0.01169
2264.06250,0.01263
2262.30469,0.01265
2260.54688,0.01223
2258.78906,0.01224
2257.03125,0.01261
2255.27344,0.01252
2253.51563,0.01177
2251.75781,0.01143
2250.00000,0.01201
2248.24219,0.01250
2246.48438,0.01231
2244.72656,0.01192
2242.96875,0.01148
2241.21094,0.01099
2239.45313,0.01083
2237.69531,0.01118
2235.93750,0.01172
2234.17969,0.01207
2232.42188,0.01216
2230.66406,0.01226
2228.90625,0.01271
2227.14844,0.01352
2225.39063,0.01407
2223.63281,0.01356
2221.87500,0.01238
2220.11719,0.01193
2218.35938,0.01257
2216.60156,0.01322
2214.84375,0.01329
2213.08594,0.01308
2211.32813,0.01261
2209.57031,0.01196
2207.81250,0.01154
2206.05469,0.01157
2204.29688,0.01195
2202.53906,0.01245
2200.78125,0.01286
2199.02344,0.01324
2197.26563,0.01362
2195.50781,0.01364
2193.75000,0.01292
2191.99219,0.01185
2190.23438,0.01132
2188.47656,0.01175
2186.71875,0.01259
2184.96094,0.01305
2183.20313,0.01310
2181.44531,0.01345
2179.68750,0.01422
2177.92969,0.01483
2176.17188,0.01494
2174.41406,0.01452
2172.65625,0.01360
2170.89844,0.01256
2169.14063,0.01215
2167.38281,0.01279
2165.62500,0.01384
2163.86719,0.01397
2162.10938,0.01278
2160.35156,0.01150
2158.59375,0.01125
2156.83594,0.01169
2155.07813,0.01211
2153.32031,0.01245
2151.56250,0.01277
2149.80469,0.01303
2148.04688,0.01313
2146.28906,0.01302
2144.53125,0.01298
2142.77344,0.01314
2141.01563,0.01319
2139.25781,0.01283
2137.50000,0.01241
2135.74219,0.01260
2133.98438,0.01318
2132.22656,0.01338
2130.46875,0.01289
2128.71094,0.01196
2126.95313,0.01130
2125.19531,0.01140
2123.43750,0.01189
2121.67969,0.01217
2119.92188,0.01199
2118.16406,0.01142
2116.40625,0.01097
2114.64844,0.01106
2112.89063,0.01146
2111.13281,0.01175
2109.37500,0.01199
2107.61719,0.01232
2105.85938,0.01250
2104.10156,0.01274
2102.34375,0.01360
2100.58594,0.01447
2098.82813,0.01441
2097.07031,0.01394
2095.31250,0.01374
2093.55469,0.01348
2091.79688,0.01290
2090.03906,0.01213
2088.28125,0.01146
2086.52344,0.01128
2084.76563,0.01155
2083.00781,0.01194
2081.25000,0.01238
2079.49219,0.01281
2077.73438,0.01309
2075.97656,0.01303
2074.21875,0.01261
2072.46094,0.01212
2070.70313,0.01168
2068.94531,0.01153
2067.18750,0.01197
2065.42969,0.01242
2063.67188,0.01214
2061.91406,0.01153
2060.15625,0.01136
2058.39844,0.01178
2056.64063,0.01245
2054.88281,0.01301
2053.12500,0.01303
2051.36719,0.01220
2049.60938,0.01112
2047.85156,0.01078
2046.09375,0.01100
2044.33594,0.01091
2042.57813,0.01047
2040.82031,0.01031
2039.06250,0.01060
2037.30469,0.01102
2035.54688,0.01132
2033.78906,0.01154
2032.03125,0.01178
2030.27344,0.01190
2028.51563,0.01192
2026.75781,0.01213
2025.00000,0.01257
2023.24219,0.01271
2021.48438,0.01222
2019.72656,0.01168
2017.96875,0.01175
2016.21094,0.01205
2014.45313,0.01190
2012.69531,0.01166
2010.93750,0.01186
2009.17969,0.01203
2007.42188,0.01171
2005.66406,0.01137
2003.90625,0.01129
2002.14844,0.01119
2000.39063,0.01089
1998.63281,0.01038
1996.87500,0.01003
1995.11719,0.01033
1993.35938,0.01088
1991.60156,0.01108
1989.84375,0.01127
1988.08594,0.01166
1986.32813,0.01188
1984.57031,0.01206
1982.81250,0.01268
1981.05469,0.01341
1979.29688,0.01320
1977.53906,0.01164
1975.78125,0.00988
1974.02344,0.00953
1972.26563,0.01056
1970.50781,0.01156
1968.75000,0.01181
1966.99219,0.01168
1965.23438,0.01131
1963.47656,0.01075
1961.71875,0.01043
1959.96094,0.01061
1958.20313,0.01099
1956.44531,0.01143
1954.68750,0.01187
1952.92969,0.01197
1951.17188,0.01160
1949.41406,0.01113
1947.65625,0.01098
1945.89844,0.01092
1944.14063,0.01045
1942.38281,0.00986
1940.62500,0.00974
1938.86719,0.00994
1937.10938,0.01028
1935.35156,0.01067
1933.59375,0.01082
1931.83594,0.01081
1930.07813,0.01092
1928.32031,0.01092
1926.56250,0.01060
1924.80469,0.01068
1923.04688,0.01139
1921.28906,0.01174
1919.53125,0.01164
1917.77344,0.01192
1916.01563,0.01232
1914.25781,0.01235
1912.50000,0.01230
1910.74219,0.01228
1908.98438,0.01209
1907.22656,0.01187
1905.46875,0.01175
1903.71094,0.01134
1901.95313,0.01051
1900.19531,0.00996
1898.43750,0.01001
1896.67969,0.01002
1894.92188,0.00967
1893.16406,0.00934
1891.40625,0.00956
1889.64844,0.01028
1887.89063,0.01071
1886.13281,0.01063
1884.37500,0.01055
1882.61719,0.01043
1880.85938,0.01017
1879.10156,0.01031
1877.34375,0.01105
1875.58594,0.01167
1873.82813,0.01134
1872.07031,0.01023
1870.31250,0.00947
1868.55469,0.00996
1866.79688,0.01104
1865.03906,0.01151
1863.28125,0.01143
1861.52344,0.01114
1859.76563,0.01060
1858.00781,0.01019
1856.25000,0.01048
1854.49219,0.01094
1852.73438,0.01079
1850.97656,0.01039
1849.21875,0.01010
1847.46094,0.00964
1845.70313,0.00909
1843.94531,0.00892
1842.18750,0.00896
1840.42969,0.00866
1838.67188,0.00828
1836.91406,0.00873
1835.15625,0.01012
1833.39844,0.01104
1831.64063,0.01050
1829.88281,0.00934
1828.12500,0.00918
1826.36719,0.00983
1824.60938,0.01018
1822.85156,0.00999
1821.09375,0.00952
1819.33594,0.00901
1817.57813,0.00887
1815.82031,0.00958
1814.06250,0.01091
1812.30469,0.01189
1810.54688,0.01160
1808.78906,0.01025
1807.03125,0.00910
1805.27344,0.00891
1803.51563,0.00926
1801.75781,0.00943
1800.00000,0.00925
1798.24219,0.00898
1796.48438,0.00869
1794.72656,0.00847
1792.96875,0.00869
1791.21094,0.00933
1789.45313,0.00962
1787.69531,0.00939
1785.93750,0.00893
1784.17969,0.00843
1782.42188,0.00820
1780.66406,0.00864
1778.90625,0.00955
1777.14844,0.01005
1775.39063,0.00968
1773.63281,0.00888
1771.87500,0.00900
1770.11719,0.00990
1768.35938,0.00994
1766.60156,0.00949
1764.84375,0.00964
1763.08594,0.01009
1761.32813,0.00988
1759.57031,0.00919
1757.81250,0.00894
1756.05469,0.00914
1754.29688,0.00924
1752.53906,0.00907
1750.78125,0.00891
1749.02344,0.00915
1747.26563,0.00959
1745.50781,0.00986
1743.75000,0.01008
1741.99219,0.01019
1740.23438,0.00998
1738.47656,0.00963
1736.71875,0.00925
1734.96094,0.00926
1733.20313,0.01061
1731.44531,0.01210
1729.68750,0.01243
1727.92969,0.01228
1726.17188,0.01212
1724.41406,0.01185
1722.65625,0.01154
1720.89844,0.01117
1719.14063,0.01043
1717.38281,0.00968
1715.62500,0.00974
1713.86719,0.01003
1712.10938,0.01014
1710.35156,0.01024
1708.59375,0.01051
1706.83594,0.01086
1705.07813,0.01089
1703.32031,0.01093
1701.56250,0.01192
1699.80469,0.01388
1698.04688,0.01499
1696.28906,0.01401
1694.53125,0.01244
1692.77344,0.01232
1691.01563,0.01346
1689.25781,0.01461
1687.50000,0.01522
1685.74219,0.01638
1683.98438,0.01914
1682.22656,0.02157
1680.46875,0.02312
1678.71094,0.02466
1676.95313,0.02600
1675.19531,0.02749
1673.43750,0.02978
1671.67969,0.03251
1669.92188,0.03558
1668.16406,0.03914
1666.40625,0.04271
1664.64844,0.04658
1662.89063,0.05156
1661.13281,0.05681
1659.37500,0.06102
1657.61719,0.06456
1655.85938,0.06783
1654.10156,0.07265
1652.34375,0.08160
1650.58594,0.08869
1648.82813,0.09449
1647.07031,0.10410
1645.31250,0.11562
1643.55469,0.12357
1641.79688,0.12999
1640.03906,0.13618
1638.28125,0.14136
1636.52344,0.14513
1634.76563,0.14577
1633.00781,0.14315
1631.25000,0.14007
1629.49219,0.13666
1627.73438,0.13177
1625.97656,0.12567
1624.21875,0.11892
1622.46094,0.11160
1620.70313,0.10538
1618.94531,0.10072
1617.18750,0.09595
1615.42969,0.09001
1613.67188,0.08443
1611.91406,0.07975
1610.15625,0.07542
1608.39844,0.07114
1606.64063,0.06702
1604.88281,0.06324
1603.12500,0.05994
1601.36719,0.05703
1599.60938,0.05445
1597.85156,0.05235
1596.09375,0.05066
1594.33594,0.04903
1592.57813,0.04779
1590.82031,0.04750
1589.06250,0.04793
1587.30469,0.04837
1585.54688,0.04873
1583.78906,0.04956
1582.03125,0.05096
1580.27344,0.05255
1578.51563,0.05439
1576.75781,0.05763
1575.00000,0.06253
1573.24219,0.06645
1571.48438,0.06921
1569.72656,0.07241
1567.96875,0.07650
1566.21094,0.08061
1564.45313,0.08462
1562.69531,0.08843
1560.93750,0.09226
1559.17969,0.09713
1557.42188,0.10079
1555.66406,0.10249
1553.90625,0.10455
1552.14844,0.10685
1550.39063,0.10947
1548.63281,0.11272
1546.87500,0.11603
1545.11719,0.11892
1543.35938,0.12141
1541.60156,0.12369
1539.84375,0.12456
1538.08594,0.12307
1536.32813,0.12094
1534.57031,0.11781
1532.81250,0.11314
1531.05469,0.10878
1529.29688,0.10527
1527.53906,0.10109
1525.78125,0.09619
1524.02344,0.09231
1522.26563,0.08870
1520.50781,0.08395
1518.75000,0.07941
1516.99219,0.07519
1515.23438,0.07148
1513.47656,0.06910
1511.71875,0.06735
1509.96094,0.06545
1508.20313,0.06303
1506.44531,0.05993
1504.68750,0.05747
1502.92969,0.05579
1501.17188,0.05430
1499.41406,0.05282
1497.65625,0.05117
1495.89844,0.04968
1494.14063,0.04901
1492.38281,0.04880
1490.62500,0.04833
1488.86719,0.04774
1487.10938,0.04766
1485.35156,0.04779
1483.59375,0.04854
1481.83594,0.05053
1480.07813,0.05312
1478.32031,0.05489
1476.56250,0.05537
1474.80469,0.05522
1473.04688,0.05548
1471.28906,0.05628
1469.53125,0.05741
1467.77344,0.05929
1466.01563,0.06275
1464.25781,0.06736
1462.50000,0.07011
1460.74219,0.07000
1458.98438,0.06782
1457.22656,0.06439
1455.46875,0.06218
1453.71094,0.06113
1451.95313,0.05991
1450.19531,0.05888
1448.43750,0.05870
1446.67969,0.05915
1444.92188,0.05967
1443.16406,0.06018
1441.40625,0.06079
1439.64844,0.06135
1437.89063,0.06174
1436.13281,0.06215
1434.37500,0.06247
1432.61719,0.06201
1430.85938,0.06030
1429.10156,0.05809
1427.34375,0.05679
1425.58594,0.05642
1423.82813,0.05652
1422.07031,0.05683
1420.31250,0.05715
1418.55469,0.05777
1416.79688,0.05842
1415.03906,0.05803
1413.28125,0.05652
1411.52344,0.05440
1409.76563,0.05191
1408.00781,0.04943
1406.25000,0.04752
1404.49219,0.04611
1402.73438,0.04485
1400.97656,0.04373
1399.21875,0.04301
1397.46094,0.04303
1395.70313,0.04356
1393.94531,0.04396
1392.18750,0.04417
1390.42969,0.04480
1388.67188,0.04624
1386.91406,0.04780
1385.15625,0.04864
1383.39844,0.04936
1381.64063,0.05053
1379.88281,0.05165
1378.12500,0.05252
1376.36719,0.05355
1374.60938,0.05450
1372.85156,0.05490
1371.09375,0.05501
1369.33594,0.05492
1367.57813,0.05445
1365.82031,0.05382
1364.06250,0.05342
1362.30469,0.05332
1360.54688,0.05309
1358.78906,0.05235
1357.03125,0.05122
1355.27344,0.05023
1353.51563,0.04992
1351.75781,0.05008
1350.00000,0.04986
1348.24219,0.04898
1346.48438,0.04779
1344.72656,0.04674
1342.96875,0.04615
1341.21094,0.04603
1339.45313,0.04625
1337.69531,0.04665
1335.93750,0.04683
1334.17969,0.04652
1332.42188,0.04581
1330.66406,0.04522
1328.90625,0.04516
1327.14844,0.04518
1325.39063,0.04481
1323.63281,0.04452
1321.87500,0.04454
1320.11719,0.04451
1318.35938,0.04471
1316.60156,0.04553
1314.84375,0.04654
1313.08594,0.04724
1311.32813,0.04764
1309.57031,0.04784
1307.81250,0.04798
1306.05469,0.04825
1304.29688,0.04861
1302.53906,0.04903
1300.78125,0.04942
1299.02344,0.04950
1297.26563,0.04934
1295.50781,0.04913
1293.75000,0.04893
1291.99219,0.04927
1290.23438,0.05027
1288.47656,0.05092
1286.71875,0.05081
1284.96094,0.05102
1283.20313,0.05239
1281.44531,0.05428
1279.68750,0.05560
1277.92969,0.05611
1276.17188,0.05610
1274.41406,0.05595
1272.65625,0.05624
1270.89844,0.05733
1269.14063,0.05899
1267.38281,0.06067
1265.62500,0.06200
1263.86719,0.06295
1262.10938,0.06338
1260.35156,0.06309
1258.59375,0.06230
1256.83594,0.06121
1255.07813,0.05974
1253.32031,0.05820
1251.56250,0.05705
1249.80469,0.05607
1248.04688,0.05515
1246.28906,0.05465
1244.53125,0.05469
1242.77344,0.05522
1241.01563,0.05610
1239.25781,0.05684
1237.50000,0.05742
1235.74219,0.05808
1233.98438,0.05808
1232.22656,0.05667
1230.46875,0.05445
1228.71094,0.05232
1226.95313,0.05052
1225.19531,0.04884
1223.43750,0.04740
1221.67969,0.04664
1219.92188,0.04648
1218.16406,0.04656
1216.40625,0.04707
1214.64844,0.04799
1212.89063,0.04874
1211.13281,0.04914
1209.37500,0.04947
1207.61719,0.04982
1205.85938,0.05033
1204.10156,0.05127
1202.34375,0.05246
1200.58594,0.05300
1198.82813,0.05217
1197.07031,0.05050
1195.31250,0.04895
1193.55469,0.04746
1191.79688,0.04588
1190.03906,0.04474
1188.28125,0.04427
1186.52344,0.04405
1184.76563,0.04370
1183.00781,0.04321
1181.25000,0.04323
1179.49219,0.04456
1177.73438,0.04715
1175.97656,0.05008
1174.21875,0.05281
1172.46094,0.05526
1170.70313,0.05716
1168.94531,0.05795
1167.18750,0.05732
1165.42969,0.05544
1163.67188,0.05285
1161.91406,0.05002
1160.15625,0.04717
1158.39844,0.04452
1156.64063,0.04242
1154.88281,0.04128
1153.12500,0.04091
1151.36719,0.04031
1149.60938,0.03902
1147.85156,0.03768
1146.09375,0.03686
1144.33594,0.03644
1142.57813,0.03612
1140.82031,0.03583
1139.06250,0.03586
1137.30469,0.03624
1135.54688,0.03644
1133.78906,0.03634
1132.03125,0.03655
1130.27344,0.03721
1128.51563,0.03803
1126.75781,0.03918
1125.00000,0.04050
1123.24219,0.04124
1121.48438,0.04143
1119.72656,0.04194
1117.96875,0.04278
1116.21094,0.04283
1114.45313,0.04172
1112.69531,0.04041
1110.93750,0.03983
1109.17969,0.04006
1107.42188,0.04025
1105.66406,0.03963
1103.90625,0.03869
1102.14844,0.03808
1100.39063,0.03760
1098.63281,0.03736
1096.87500,0.03754
1095.11719,0.03753
1093.35938,0.03682
1091.60156,0.03578
1089.84375,0.03478
1088.08594,0.03417
1086.32813,0.03446
1084.57031,0.03559
1082.81250,0.03667
1081.05469,0.03694
1079.29688,0.03660
1077.53906,0.03630
1075.78125,0.03636
1074.02344,0.03654
1072.26563,0.03651
1070.50781,0.03627
1068.75000,0.03595
1066.99219,0.03564
1065.23438,0.03531
1063.47656,0.03494
1061.71875,0.03477
1059.96094,0.03467
1058.20313,0.03432
1056.44531,0.03411
1054.68750,0.03439
1052.92969,0.03448
1051.17188,0.03420
1049.41406,0.03422
1047.65625,0.03435
1045.89844,0.03411
1044.14063,0.03399
1042.38281,0.03445
1040.62500,0.03501
1038.86719,0.03530
1037.10938,0.03558
1035.35156,0.03587
1033.59375,0.03612
1031.83594,0.03627
1030.07813,0.03578
1028.32031,0.03483
1026.56250,0.03437
1024.80469,0.03447
1023.04688,0.03470
1021.28906,0.03500
1019.53125,0.03501
1017.77344,0.03454
1016.01563,0.03429
1014.25781,0.03448
1012.50000,0.03433
1010.74219,0.03377
1008.98438,0.03367
1007.22656,0.03413
1005.46875,0.03457
1003.71094,0.03474
1001.95313,0.03433
1000.19531,0.03341
998.43750,0.03283
996.67969,0.03285
994.92188,0.03273
993.16406,0.03215
991.40625,0.03163
989.64844,0.03164
987.89063,0.03231
986.13281,0.03346
984.37500,0.03443
982.61719,0.03467
980.85938,0.03470
979.10156,0.03524
977.34375,0.03614
975.58594,0.03692
973.82813,0.03728
972.07031,0.03689
970.31250,0.03594
968.55469,0.03498
966.79688,0.03430
965.03906,0.03436
963.28125,0.03557
961.52344,0.03645
959.76563,0.03533
958.00781,0.03372
956.25000,0.03361
954.49219,0.03383
952.73438,0.03259
950.97656,0.03066
949.21875,0.02931
947.46094,0.02806
945.70313,0.02674
943.94531,0.02651
942.18750,0.02738
940.42969,0.02827
938.67188,0.02908
936.91406,0.02989
935.15625,0.03061
933.39844,0.03170
931.64063,0.03257
929.88281,0.03177
928.12500,0.02980
926.36719,0.02847
924.60938,0.02799
922.85156,0.02752
921.09375,0.02710
919.33594,0.02699
917.57813,0.02693
915.82031,0.02694
914.06250,0.02784
912.30469,0.02949
910.54688,0.03022
908.78906,0.02919
907.03125,0.02764
905.27344,0.02683
903.51563,0.02669
901.75781,0.02689
900.00000,0.02743
898.24219,0.02774
896.48438,0.02687
894.72656,0.02477
892.96875,0.02260
891.21094,0.02196
889.45313,0.02311
887.69531,0.02406
885.93750,0.02320
884.17969,0.02208
882.42188,0.02305
880.66406,0.02542
878.90625,0.02675
877.14844,0.02652
875.39063,0.02624
873.63281,0.02668
871.87500,0.02689
870.11719,0.02621
868.35938,0.02554
866.60156,0.02547
864.84375,0.02481
863.08594,0.02310
861.32813,0.02227
859.57031,0.02315
857.81250,0.02430
856.05469,0.02555
854.29688,0.02744
852.53906,0.02839
850.78125,0.02705
849.02344,0.02425
847.26563,0.02166
845.50781,0.02117
843.75000,0.02309
841.99219,0.02501
840.23438,0.02526
838.47656,0.02536
836.71875,0.02623
834.96094,0.02559
833.20313,0.02331
831.44531,0.02285
829.68750,0.02443
827.92969,0.02571
826.17188,0.02636
824.41406,0.02557
822.65625,0.02338
820.89844,0.02318
819.14063,0.02540
817.38281,0.02677
815.62500,0.02777
813.86719,0.03059
812.10938,0.03269
810.35156,0.03153
808.59375,0.02990
806.83594,0.03026
805.07813,0.03193
803.32031,0.03411
801.56250,0.03539
799.80469,0.03413
798.04688,0.03155
796.28906,0.03038
794.53125,0.03188
792.77344,0.03511
791.01563,0.03795
789.25781,0.03835
787.50000,0.03551
785.74219,0.03168
783.98438,0.03011
782.22656,0.03076
780.46875,0.03246
778.71094,0.03592
776.95313,0.04126
775.19531,0.04680
773.43750,0.05003
771.67969,0.04889
769.92188,0.04454
768.16406,0.03905
766.40625,0.03235
764.64844,0.02643
762.89063,0.02439
761.13281,0.02558
759.37500,0.02929
757.61719,0.03559
755.85938,0.04149
754.10156,0.04395
752.34375,0.04489
750.58594,0.04817
748.82813,0.05291
747.07031,0.05381
745.31250,0.04863
743.55469,0.04176
741.79688,0.03830
740.03906,0.03893
738.28125,0.04069
736.52344,0.04121
734.76563,0.03943
733.00781,0.03679
731.25000,0.03914
729.49219,0.04788
727.73438,0.05368
725.97656,0.05099
724.21875,0.04753
722.46094,0.05104
720.70313,0.05944
718.94531,0.06606
717.18750,0.06392
715.42969,0.05225
713.67188,0.04602
711.91406,0.05417
710.15625,0.06224
708.39844,0.06167
706.64063,0.06551
704.88281,0.07408
703.12500,0.07005
701.36719,0.06124
699.60938,0.06723
697.85156,0.07976
696.09375,0.07660
694.33594,0.05793
692.57813,0.03994
690.82031,0.03462
689.06250,0.04699
687.30469,0.06468
685.54688,0.06967
683.78906,0.06836
682.03125,0.07438
680.27344,0.07178
678.51563,0.05931
