3997.26563,0.01220
3995.50781,0.01136
3993.75000,0.01043
3991.99219,0.01131
3990.23438,0.01157
3988.47656,0.01134
3986.71875,0.01330
3984.96094,0.01690
3983.20313,0.01880
3981.44531,0.01659
3979.68750,0.01256
3977.92969,0.01168
3976.17188,0.01397
3974.41406,0.01471
3972.65625,0.01219
3970.89844,0.01002
3969.14063,0.01198
3967.38281,0.01650
3965.62500,0.01877
3963.86719,0.01885
3962.10938,0.01928
3960.35156,0.01877
3958.59375,0.01626
3956.83594,0.01411
3955.07813,0.01359
3953.32031,0.01368
3951.56250,0.01407
3949.80469,0.01474
3948.04688,0.01394
3946.28906,0.01161
3944.53125,0.01094
3942.77344,0.01271
3941.01563,0.01317
3939.25781,0.01034
3937.50000,0.00800
3935.74219,0.00911
3933.98438,0.00991
3932.22656,0.00625
3930.46875,0.00282
3928.71094,0.00528
3926.95313,0.01075
3925.19531,0.01459
3923.43750,0.01578
3921.67969,0.01683
3919.92188,0.01858
3918.16406,0.01913
3916.40625,0.01846
3914.64844,0.01835
3912.89063,0.01828
3911.13281,0.01653
3909.37500,0.01290
3907.61719,0.00953
3905.85938,0.00952
3904.10156,0.01355
3902.34375,0.01560
3900.58594,0.01129
3898.82813,0.00701
3897.07031,0.00826
3895.31250,0.01185
3893.55469,0.01323
3891.79688,0.01118
3890.03906,0.00947
3888.28125,0.01247
3886.52344,0.01881
3884.76563,0.02181
3883.00781,0.01883
3881.25000,0.01649
3879.49219,0.01800
3877.73438,0.02077
3875.97656,0.02203
3874.21875,0.02019
3872.46094,0.01785
3870.70313,0.01933
3868.94531,0.01968
3867.18750,0.01358
3865.42969,0.00655
3863.67188,0.00651
3861.91406,0.01348
3860.15625,0.01949
3858.39844,0.02247
3856.64063,0.02413
3854.88281,0.02384
3853.12500,0.02152
3851.36719,0.02164
3849.60938,0.02219
3847.85156,0.02165
3846.09375,0.02178
3844.33594,0.02342
3842.57813,0.02508
3840.82031,0.02330
3839.06250,0.01642
3837.30469,0.01222
3835.54688,0.01659
3833.78906,0.02106
3832.03125,0.01987
3830.27344,0.01596
3828.51563,0.01389
3826.75781,0.01440
3825.00000,0.01531
3823.24219,0.01377
3821.48438,0.00806
3819.72656,0.00269
3817.96875,0.00348
3816.21094,0.00560
3814.45313,0.00463
3812.69531,0.00398
3810.93750,0.00701
3809.17969,0.01278
3807.42188,0.01682
3805.66406,0.01594
3803.90625,0.01406
3802.14844,0.01378
3800.39063,0.01481
3798.63281,0.01665
3796.87500,0.01804
3795.11719,0.01870
3793.35938,0.01828
3791.60156,0.01589
3789.84375,0.01356
3788.08594,0.01383
3786.32813,0.01508
3784.57031,0.01558
3782.81250,0.01689
3781.05469,0.01934
3779.29688,0.02034
3777.53906,0.01865
3775.78125,0.01633
3774.02344,0.01456
3772.26563,0.01338
3770.50781,0.01259
3768.75000,0.01170
3766.99219,0.01277
3765.23438,0.01736
3763.47656,0.02141
3761.71875,0.02170
3759.96094,0.02064
3758.20313,0.01981
3756.44531,0.01718
3754.68750,0.01426
3752.92969,0.01322
3751.17188,0.00985
3749.41406,0.00381
3747.65625,0.00590
3745.89844,0.01570
3744.14063,0.02477
3742.38281,0.02424
3740.62500,0.01778
3738.86719,0.01260
3737.10938,0.01351
3735.35156,0.01919
3733.59375,0.01912
3731.83594,0.01501
3730.07813,0.01510
3728.32031,0.01811
3726.56250,0.02089
3724.80469,0.02202
3723.04688,0.02070
3721.28906,0.01775
3719.53125,0.01522
3717.77344,0.01344
3716.01563,0.01170
3714.25781,0.01054
3712.50000,0.01171
3710.74219,0.01517
3708.98438,0.01786
3707.22656,0.01953
3705.46875,0.02001
3703.71094,0.01768
3701.95313,0.01386
3700.19531,0.01330
3698.43750,0.01602
3696.67969,0.01777
3694.92188,0.01696
3693.16406,0.01578
3691.40625,0.01614
3689.64844,0.01609
3687.89063,0.01476
3686.13281,0.01542
3684.37500,0.01738
3682.61719,0.01817
3680.85938,0.01584
3679.10156,0.00995
3677.34375,0.00454
3675.58594,0.00614
3673.82813,0.01194
3672.07031,0.01289
3670.31250,0.00856
3668.55469,0.00392
3666.79688,0.00416
3665.03906,0.00674
3663.28125,0.00877
3661.52344,0.01027
3659.76563,0.01224
3658.00781,0.01464
3656.25000,0.01576
3654.49219,0.01373
3652.73438,0.00961
3650.97656,0.00604
3649.21875,0.00801
3647.46094,0.01495
3645.70313,0.01711
3643.94531,0.01615
3642.18750,0.01638
3640.42969,0.01647
3638.67188,0.01318
3636.91406,0.00927
3635.15625,0.00965
3633.39844,0.01341
3631.64063,0.01674
3629.88281,0.01869
3628.12500,0.02022
3626.36719,0.02170
3624.60938,0.02252
3622.85156,0.02260
3621.09375,0.02217
3619.33594,0.01999
3617.57813,0.01490
3615.82031,0.00945
3614.06250,0.00576
3612.30469,0.00412
3610.54688,0.00434
3608.78906,0.00681
3607.03125,0.00999
3605.27344,0.01031
3603.51563,0.01066
3601.75781,0.01692
3600.00000,0.02496
3598.24219,0.02383
3596.48438,0.01474
3594.72656,0.00720
3592.96875,0.00591
3591.21094,0.00914
3589.45313,0.01286
3587.69531,0.01443
3585.93750,0.01538
3584.17969,0.01721
3582.42188,0.01899
3580.66406,0.01950
3578.90625,0.01696
3577.14844,0.01315
3575.39063,0.01285
3573.63281,0.01566
3571.87500,0.01785
3570.11719,0.01927
3568.35938,0.02066
3566.60156,0.01951
3564.84375,0.01708
3563.08594,0.01780
3561.32813,0.01989
3559.57031,0.02087
3557.81250,0.02197
3556.05469,0.02436
3554.29688,0.02677
3552.53906,0.02712
3550.78125,0.02469
3549.02344,0.02137
3547.26563,0.01918
3545.50781,0.01865
3543.75000,0.01792
3541.99219,0.01585
3540.23438,0.01461
3538.47656,0.01459
3536.71875,0.01286
3534.96094,0.00920
3533.20313,0.00744
3531.44531,0.00883
3529.68750,0.01064
3527.92969,0.01153
3526.17188,0.01235
3524.41406,0.01204
3522.65625,0.01043
3520.89844,0.00959
3519.14063,0.00959
3517.38281,0.01005
3515.62500,0.01206
3513.86719,0.01460
3512.10938,0.01498
3510.35156,0.01326
3508.59375,0.01268
3506.83594,0.01477
3505.07813,0.01842
3503.32031,0.02270
3501.56250,0.02447
3499.80469,0.02150
3498.04688,0.01887
3496.28906,0.02051
3494.53125,0.02090
3492.77344,0.01594
3491.01563,0.01101
3489.25781,0.01005
3487.50000,0.01078
3485.74219,0.01125
3483.98438,0.01149
3482.22656,0.01175
3480.46875,0.01407
3478.71094,0.01920
3476.95313,0.02269
3475.19531,0.02157
3473.43750,0.01896
3471.67969,0.01736
3469.92188,0.01608
3468.16406,0.01530
3466.40625,0.01592
3464.64844,0.01738
3462.89063,0.01712
3461.13281,0.01429
3459.37500,0.01221
3457.61719,0.01267
3455.85938,0.01347
3454.10156,0.01410
3452.34375,0.01527
3450.58594,0.01627
3448.82813,0.01795
3447.07031,0.02052
3445.31250,0.01969
3443.55469,0.01531
3441.79688,0.01344
3440.03906,0.01456
3438.28125,0.01400
3436.52344,0.01195
3434.76563,0.01151
3433.00781,0.01347
3431.25000,0.01563
3429.49219,0.01499
3427.73438,0.01329
3425.97656,0.01422
3424.21875,0.01587
3422.46094,0.01519
3420.70313,0.01447
3418.94531,0.01549
3417.18750,0.01573
3415.42969,0.01436
3413.67188,0.01362
3411.91406,0.01372
3410.15625,0.01214
3408.39844,0.00854
3406.64063,0.00640
3404.88281,0.00828
3403.12500,0.01269
3401.36719,0.01684
3399.60938,0.01918
3397.85156,0.01992
3396.09375,0.02030
3394.33594,0.01944
3392.57813,0.01570
3390.82031,0.01257
3389.06250,0.01458
3387.30469,0.01941
3385.54688,0.02235
3383.78906,0.02174
3382.03125,0.01754
3380.27344,0.01175
3378.51563,0.00963
3376.75781,0.01382
3375.00000,0.01917
3373.24219,0.01907
3371.48438,0.01459
3369.72656,0.01097
3367.96875,0.00941
3366.21094,0.00927
3364.45313,0.01186
3362.69531,0.01644
3360.93750,0.01906
3359.17969,0.01748
3357.42188,0.01342
3355.66406,0.01051
3353.90625,0.01016
3352.14844,0.01056
3350.39063,0.01053
3348.63281,0.01097
3346.87500,0.01237
3345.11719,0.01389
3343.35938,0.01481
3341.60156,0.01486
3339.84375,0.01372
3338.08594,0.01270
3336.32813,0.01432
3334.57031,0.01789
3332.81250,0.02009
3331.05469,0.01920
3329.29688,0.01604
3327.53906,0.01279
3325.78125,0.01091
3324.02344,0.00996
3322.26563,0.00998
3320.50781,0.01213
3318.75000,0.01599
3316.99219,0.01858
3315.23438,0.01801
3313.47656,0.01633
3311.71875,0.01572
3309.96094,0.01592
3308.20313,0.01602
3306.44531,0.01481
3304.68750,0.01284
3302.92969,0.01311
3301.17188,0.01572
3299.41406,0.01787
3297.65625,0.01840
3295.89844,0.01751
3294.14063,0.01600
3292.38281,0.01590
3290.62500,0.01696
3288.86719,0.01628
3287.10938,0.01518
3285.35156,0.01752
3283.59375,0.02046
3281.83594,0.01905
3280.07813,0.01529
3278.32031,0.01305
3276.56250,0.01270
3274.80469,0.01311
3273.04688,0.01321
3271.28906,0.01348
3269.53125,0.01489
3267.77344,0.01622
3266.01563,0.01541
3264.25781,0.01278
3262.50000,0.01170
3260.74219,0.01382
3258.98438,0.01610
3257.22656,0.01553
3255.46875,0.01254
3253.71094,0.01027
3251.95313,0.01188
3250.19531,0.01600
3248.43750,0.01822
3246.67969,0.01695
3244.92188,0.01390
3243.16406,0.01164
3241.40625,0.01204
3239.64844,0.01442
3237.89063,0.01585
3236.13281,0.01446
3234.37500,0.01175
3232.61719,0.01049
3230.85938,0.01142
3229.10156,0.01299
3227.34375,0.01354
3225.58594,0.01293
3223.82813,0.01220
3222.07031,0.01210
3220.31250,0.01261
3218.55469,0.01347
3216.79688,0.01496
3215.03906,0.01692
3213.28125,0.01785
3211.52344,0.01706
3209.76563,0.01564
3208.00781,0.01436
3206.25000,0.01346
3204.49219,0.01391
3202.73438,0.01578
3200.97656,0.01725
3199.21875,0.01657
3197.46094,0.01408
3195.70313,0.01241
3193.94531,0.01370
3192.18750,0.01678
3190.42969,0.01901
3188.67188,0.01964
3186.91406,0.01864
3185.15625,0.01586
3183.39844,0.01239
3181.64063,0.00952
3179.88281,0.00800
3178.12500,0.00927
3176.36719,0.01321
3174.60938,0.01644
3172.85156,0.01668
3171.09375,0.01563
3169.33594,0.01588
3167.57813,0.01709
3165.82031,0.01684
3164.06250,0.01498
3162.30469,0.01426
3160.54688,0.01535
3158.78906,0.01601
3157.03125,0.01561
3155.27344,0.01551
3153.51563,0.01616
3151.75781,0.01691
3150.00000,0.01662
3148.24219,0.01481
3146.48438,0.01368
3144.72656,0.01550
3142.96875,0.01841
3141.21094,0.01883
3139.45313,0.01681
3137.69531,0.01490
3135.93750,0.01387
3134.17969,0.01311
3132.42188,0.01260
3130.66406,0.01214
3128.90625,0.01237
3127.14844,0.01512
3125.39063,0.01920
3123.63281,0.02100
3121.87500,0.02014
3120.11719,0.01824
3118.35938,0.01541
3116.60156,0.01240
3114.84375,0.01116
3113.08594,0.01195
3111.32813,0.01274
3109.57031,0.01202
3107.81250,0.01140
3106.05469,0.01305
3104.29688,0.01580
3102.53906,0.01705
3100.78125,0.01611
3099.02344,0.01474
3097.26563,0.01502
3095.50781,0.01576
3093.75000,0.01442
3091.99219,0.01191
3090.23438,0.01039
3088.47656,0.01072
3086.71875,0.01341
3084.96094,0.01694
3083.20313,0.01826
3081.44531,0.01726
3079.68750,0.01553
3077.92969,0.01346
3076.17188,0.01198
3074.41406,0.01219
3072.65625,0.01369
3070.89844,0.01559
3069.14063,0.01647
3067.38281,0.01549
3065.62500,0.01437
3063.86719,0.01496
3062.10938,0.01637
3060.35156,0.01631
3058.59375,0.01416
3056.83594,0.01178
3055.07813,0.01111
3053.32031,0.01244
3051.56250,0.01528
3049.80469,0.01795
3048.04688,0.01842
3046.28906,0.01719
3044.53125,0.01597
3042.77344,0.01537
3041.01563,0.01564
3039.25781,0.01607
3037.50000,0.01527
3035.74219,0.01421
3033.98438,0.01456
3032.22656,0.01495
3030.46875,0.01378
3028.71094,0.01244
3026.95313,0.01252
3025.19531,0.01316
3023.43750,0.01262
3021.67969,0.01166
3019.92188,0.01248
3018.16406,0.01414
3016.40625,0.01399
3014.64844,0.01264
3012.89063,0.01207
3011.13281,0.01212
3009.37500,0.01206
3007.61719,0.01199
3005.85938,0.01196
3004.10156,0.01214
3002.34375,0.01280
3000.58594,0.01334
2998.82813,0.01330
2997.07031,0.01350
2995.31250,0.01496
2993.55469,0.01774
2991.79688,0.02050
2990.03906,0.02115
2988.28125,0.01927
2986.52344,0.01756
2984.76563,0.01808
2983.00781,0.01948
2981.25000,0.02013
2979.49219,0.02048
2977.73438,0.02182
2975.97656,0.02484
2974.21875,0.02830
2972.46094,0.02999
2970.70313,0.02981
2968.94531,0.02982
2967.18750,0.03186
2965.42969,0.03555
2963.67188,0.03857
2961.91406,0.03981
2960.15625,0.04031
2958.39844,0.04140
2956.64063,0.04408
2954.88281,0.04856
2953.12500,0.05281
2951.36719,0.05459
2949.60938,0.05458
2947.85156,0.05394
2946.09375,0.05147
2944.33594,0.04670
2942.57813,0.04136
2940.82031,0.03658
2939.06250,0.03296
2937.30469,0.03228
2935.54688,0.03544
2933.78906,0.04027
2932.03125,0.04408
2930.27344,0.04687
2928.51563,0.04954
2926.75781,0.05223
2925.00000,0.05622
2923.24219,0.06203
2921.48438,0.06637
2919.72656,0.06711
2917.96875,0.06655
2916.21094,0.06617
2914.45313,0.06477
2912.69531,0.06173
2910.93750,0.05777
2909.17969,0.05425
2907.42188,0.05176
2905.66406,0.04944
2903.90625,0.04691
2902.14844,0.04437
2900.39063,0.04171
2898.63281,0.03976
2896.87500,0.03877
2895.11719,0.03716
2893.35938,0.03528
2891.60156,0.03547
2889.84375,0.03751
2888.08594,0.03931
2886.32813,0.04059
2884.57031,0.04199
2882.81250,0.04290
2881.05469,0.04290
2879.29688,0.04226
2877.53906,0.04087
2875.78125,0.03926
2874.02344,0.03881
2872.26563,0.03962
2870.50781,0.04046
2868.75000,0.04071
2866.99219,0.04015
2865.23438,0.03750
2863.47656,0.03266
2861.71875,0.02862
2859.96094,0.02733
2858.20313,0.02766
2856.44531,0.02821
2854.68750,0.02816
2852.92969,0.02718
2851.17188,0.02601
2849.41406,0.02528
2847.65625,0.02497
2845.89844,0.02576
2844.14063,0.02866
2842.38281,0.03318
2840.62500,0.03740
2838.86719,0.03998
2837.10938,0.04037
2835.35156,0.03810
2833.59375,0.03428
2831.83594,0.03066
2830.07813,0.02717
2828.32031,0.02364
2826.56250,0.02156
2824.80469,0.02166
2823.04688,0.02250
2821.28906,0.02215
2819.53125,0.02037
2817.77344,0.01880
2816.01563,0.01838
2814.25781,0.01811
2812.50000,0.01734
2810.74219,0.01657
2808.98438,0.01631
2807.22656,0.01677
2805.46875,0.01724
2803.71094,0.01688
2801.95313,0.01629
2800.19531,0.01604
2798.43750,0.01523
2796.67969,0.01317
2794.92188,0.01114
2793.16406,0.01098
2791.40625,0.01247
2789.64844,0.01404
2787.89063,0.01533
2786.13281,0.01650
2784.37500,0.01688
2782.61719,0.01619
2780.85938,0.01528
2779.10156,0.01532
2777.34375,0.01653
2775.58594,0.01762
2773.82813,0.01717
2772.07031,0.01580
2770.31250,0.01523
2768.55469,0.01568
2766.79688,0.01581
2765.03906,0.01482
2763.28125,0.01340
2761.52344,0.01329
2759.76563,0.01511
2758.00781,0.01708
2756.25000,0.01731
2754.49219,0.01632
2752.73438,0.01585
2750.97656,0.01627
2749.21875,0.01674
2747.46094,0.01639
2745.70313,0.01484
2743.94531,0.01317
2742.18750,0.01366
2740.42969,0.01669
2738.67188,0.01931
2736.91406,0.01889
2735.15625,0.01647
2733.39844,0.01490
2731.64063,0.01514
2729.88281,0.01562
2728.12500,0.01489
2726.36719,0.01376
2724.60938,0.01377
2722.85156,0.01482
2721.09375,0.01564
2719.33594,0.01625
2717.57813,0.01734
2715.82031,0.01820
2714.06250,0.01822
2712.30469,0.01807
2710.54688,0.01792
2708.78906,0.01760
2707.03125,0.01667
2705.27344,0.01486
2703.51563,0.01407
2701.75781,0.01555
2700.00000,0.01694
2698.24219,0.01596
2696.48438,0.01366
2694.72656,0.01247
2692.96875,0.01307
2691.21094,0.01387
2689.45313,0.01315
2687.69531,0.01166
2685.93750,0.01216
2684.17969,0.01502
2682.42188,0.01730
2680.66406,0.01804
2678.90625,0.01905
2677.14844,0.02008
2675.39063,0.01903
2673.63281,0.01610
2671.87500,0.01374
2670.11719,0.01332
2668.35938,0.01406
2666.60156,0.01479
2664.84375,0.01511
2663.08594,0.01486
2661.32813,0.01379
2659.57031,0.01255
2657.81250,0.01285
2656.05469,0.01511
2654.29688,0.01722
2652.53906,0.01716
2650.78125,0.01578
2649.02344,0.01517
2647.26563,0.01559
2645.50781,0.01590
2643.75000,0.01548
2641.99219,0.01478
2640.23438,0.01428
2638.47656,0.01393
2636.71875,0.01385
2634.96094,0.01403
2633.20313,0.01410
2631.44531,0.01399
2629.68750,0.01351
2627.92969,0.01287
2626.17188,0.01320
2624.41406,0.01460
2622.65625,0.01590
2620.89844,0.01630
2619.14063,0.01580
2617.38281,0.01498
2615.62500,0.01455
2613.86719,0.01471
2612.10938,0.01506
2610.35156,0.01552
2608.59375,0.01654
2606.83594,0.01740
2605.07813,0.01694
2603.32031,0.01557
2601.56250,0.01443
2599.80469,0.01424
2598.04688,0.01454
2596.28906,0.01379
2594.53125,0.01221
2592.77344,0.01180
2591.01563,0.01324
2589.25781,0.01497
2587.50000,0.01575
2585.74219,0.01609
2583.98438,0.01605
2582.22656,0.01494
2580.46875,0.01363
2578.71094,0.01339
2576.95313,0.01369
2575.19531,0.01377
2573.43750,0.01423
2571.67969,0.01544
2569.92188,0.01625
2568.16406,0.01595
2566.40625,0.01569
2564.64844,0.01669
2562.89063,0.01836
2561.13281,0.01905
2559.37500,0.01831
2557.61719,0.01743
2555.85938,0.01698
2554.10156,0.01620
2552.34375,0.01505
2550.58594,0.01427
2548.82813,0.01366
2547.07031,0.01247
2545.31250,0.01137
2543.55469,0.01174
2541.79688,0.01334
2540.03906,0.01460
2538.28125,0.01494
2536.52344,0.01506
2534.76563,0.01543
2533.00781,0.01548
2531.25000,0.01504
2529.49219,0.01496
2527.73438,0.01524
2525.97656,0.01487
2524.21875,0.01412
2522.46094,0.01423
2520.70313,0.01526
2518.94531,0.01614
2517.18750,0.01600
2515.42969,0.01488
2513.67188,0.01379
2511.91406,0.01373
2510.15625,0.01469
2508.39844,0.01542
2506.64063,0.01484
2504.88281,0.01375
2503.12500,0.01346
2501.36719,0.01349
2499.60938,0.01312
2497.85156,0.01289
2496.09375,0.01309
2494.33594,0.01344
2492.57813,0.01384
2490.82031,0.01414
2489.06250,0.01450
2487.30469,0.01518
2485.54688,0.01528
2483.78906,0.01410
2482.03125,0.01297
2480.27344,0.01312
2478.51563,0.01403
2476.75781,0.01491
2475.00000,0.01539
2473.24219,0.01531
2471.48438,0.01512
2469.72656,0.01508
2467.96875,0.01457
2466.21094,0.01366
2464.45313,0.01361
2462.69531,0.01456
2460.93750,0.01488
2459.17969,0.01394
2457.42188,0.01356
2455.66406,0.01458
2453.90625,0.01510
2452.14844,0.01449
2450.39063,0.01431
2448.63281,0.01485
2446.87500,0.01530
2445.11719,0.01526
2443.35938,0.01437
2441.60156,0.01310
2439.84375,0.01229
2438.08594,0.01214
2436.32813,0.01260
2434.57031,0.01328
2432.81250,0.01363
2431.05469,0.01329
2429.29688,0.01227
2427.53906,0.01184
2425.78125,0.01311
2424.02344,0.01496
2422.26563,0.01546
2420.50781,0.01417
2418.75000,0.01245
2416.99219,0.01179
2415.23438,0.01241
2413.47656,0.01369
2411.71875,0.01439
2409.96094,0.01378
2408.20313,0.01339
2406.44531,0.01401
2404.68750,0.01379
2402.92969,0.01249
2401.17188,0.01216
2399.41406,0.01326
2397.65625,0.01447
2395.89844,0.01499
2394.14063,0.01485
2392.38281,0.01406
2390.62500,0.01316
2388.86719,0.01340
2387.10938,0.01508
2385.35156,0.01705
2383.59375,0.01865
2381.83594,0.02018
2380.07813,0.02132
2378.32031,0.02130
2376.56250,0.02099
2374.80469,0.02278
2373.04688,0.02698
2371.28906,0.02991
2369.53125,0.02835
2367.77344,0.02582
2366.01563,0.02887
2364.25781,0.03790
2362.50000,0.04576
2360.74219,0.04468
2358.98438,0.03904
2357.22656,0.03878
2355.46875,0.03946
2353.71094,0.03347
2351.95313,0.02565
2350.19531,0.02183
2348.43750,0.02259
2346.67969,0.02813
2344.92188,0.03605
2343.16406,0.03719
2341.40625,0.03003
2339.64844,0.02564
2337.89063,0.02611
2336.13281,0.02522
2334.37500,0.02458
2332.61719,0.02886
2330.85938,0.03489
2329.10156,0.03697
2327.34375,0.03506
2325.58594,0.03031
2323.82813,0.02334
2322.07031,0.01847
2320.31250,0.01954
2318.55469,0.02414
2316.79688,0.02713
2315.03906,0.02611
2313.28125,0.02363
2311.52344,0.02290
2309.76563,0.02268
2308.00781,0.02169
2306.25000,0.02132
2304.49219,0.02116
2302.73438,0.01967
2300.97656,0.01743
2299.21875,0.01598
2297.46094,0.01621
2295.70313,0.01779
2293.94531,0.01889
2292.18750,0.01832
2290.42969,0.01709
2288.67188,0.01645
2286.91406,0.01602
2285.15625,0.01502
2283.39844,0.01389
2281.64063,0.01360
2279.88281,0.01441
2278.12500,0.01562
2276.36719,0.01636
2274.60938,0.01675
2272.85156,0.01710
2271.09375,0.01648
2269.33594,0.01471
2267.57813,0.01351
2265.82031,0.01360
2264.06250,0.01435
2262.30469,0.01570
2260.54688,0.01701
2258.78906,0.01725
2257.03125,0.01668
2255.27344,0.01597
2253.51563,0.01500
2251.75781,0.01375
2250.00000,0.01315
2248.24219,0.01402
2246.48438,0.01533
2244.72656,0.01539
2242.96875,0.01439
2241.21094,0.01400
2239.45313,0.01474
2237.69531,0.01513
2235.93750,0.01446
2234.17969,0.01403
2232.42188,0.01418
2230.66406,0.01377
2228.90625,0.01305
2227.14844,0.01270
2225.39063,0.01200
2223.63281,0.01140
2221.87500,0.01223
2220.11719,0.01372
2218.35938,0.01414
2216.60156,0.01358
2214.84375,0.01305
2213.08594,0.01290
2211.32813,0.01287
2209.57031,0.01261
2207.81250,0.01219
2206.05469,0.01214
2204.29688,0.01254
2202.53906,0.01272
2200.78125,0.01229
2199.02344,0.01186
2197.26563,0.01224
2195.50781,0.01332
2193.75000,0.01455
2191.99219,0.01554
2190.23438,0.01580
2188.47656,0.01517
2186.71875,0.01442
2184.96094,0.01419
2183.20313,0.01412
2181.44531,0.01382
2179.68750,0.01347
2177.92969,0.01322
2176.17188,0.01320
2174.41406,0.01320
2172.65625,0.01266
2170.89844,0.01223
2169.14063,0.01287
2167.38281,0.01381
2165.62500,0.01418
2163.86719,0.01409
2162.10938,0.01380
2160.35156,0.01382
2158.59375,0.01413
2156.83594,0.01400
2155.07813,0.01337
2153.32031,0.01331
2151.56250,0.01473
2149.80469,0.01679
2148.04688,0.01715
2146.28906,0.01556
2144.53125,0.01466
2142.77344,0.01566
2141.01563,0.01674
2139.25781,0.01668
2137.50000,0.01593
2135.74219,0.01499
2133.98438,0.01453
2132.22656,0.01460
2130.46875,0.01402
2128.71094,0.01241
2126.95313,0.01077
2125.19531,0.01028
2123.43750,0.01128
2121.67969,0.01269
2119.92188,0.01363
2118.16406,0.01392
2116.40625,0.01336
2114.64844,0.01275
2112.89063,0.01300
2111.13281,0.01319
2109.37500,0.01254
2107.61719,0.01203
2105.85938,0.01239
2104.10156,0.01307
2102.34375,0.01366
2100.58594,0.01448
2098.82813,0.01532
2097.07031,0.01566
2095.31250,0.01585
2093.55469,0.01611
2091.79688,0.01584
2090.03906,0.01537
2088.28125,0.01556
2086.52344,0.01585
2084.76563,0.01526
2083.00781,0.01407
2081.25000,0.01304
2079.49219,0.01261
2077.73438,0.01249
2075.97656,0.01213
2074.21875,0.01197
2072.46094,0.01240
2070.70313,0.01269
2068.94531,0.01260
2067.18750,0.01294
2065.42969,0.01419
2063.67188,0.01570
2061.91406,0.01613
2060.15625,0.01475
2058.39844,0.01238
2056.64063,0.01069
2054.88281,0.01085
2053.12500,0.01255
2051.36719,0.01433
2049.60938,0.01531
2047.85156,0.01577
2046.09375,0.01581
2044.33594,0.01500
2042.57813,0.01338
2040.82031,0.01207
2039.06250,0.01236
2037.30469,0.01360
2035.54688,0.01355
2033.78906,0.01202
2032.03125,0.01111
2030.27344,0.01144
2028.51563,0.01194
2026.75781,0.01245
2025.00000,0.01324
2023.24219,0.01364
2021.48438,0.01327
2019.72656,0.01294
2017.96875,0.01297
2016.21094,0.01279
2014.45313,0.01256
2012.69531,0.01272
2010.93750,0.01330
2009.17969,0.01426
2007.42188,0.01494
2005.66406,0.01462
2003.90625,0.01407
2002.14844,0.01428
2000.39063,0.01517
1998.63281,0.01603
1996.87500,0.01590
1995.11719,0.01463
1993.35938,0.01374
1991.60156,0.01450
1989.84375,0.01582
1988.08594,0.01584
1986.32813,0.01454
1984.57031,0.01309
1982.81250,0.01251
1981.05469,0.01334
1979.29688,0.01492
1977.53906,0.01568
1975.78125,0.01498
1974.02344,0.01383
1972.26563,0.01359
1970.50781,0.01441
1968.75000,0.01504
1966.99219,0.01500
1965.23438,0.01512
1963.47656,0.01498
1961.71875,0.01347
1959.96094,0.01172
1958.20313,0.01129
1956.44531,0.01160
1954.68750,0.01181
1952.92969,0.01211
1951.17188,0.01265
1949.41406,0.01377
1947.65625,0.01562
1945.89844,0.01721
1944.14063,0.01738
1942.38281,0.01603
1940.62500,0.01414
1938.86719,0.01277
1937.10938,0.01267
1935.35156,0.01388
1933.59375,0.01487
1931.83594,0.01427
1930.07813,0.01306
1928.32031,0.01287
1926.56250,0.01350
1924.80469,0.01363
1923.04688,0.01314
1921.28906,0.01299
1919.53125,0.01324
1917.77344,0.01367
1916.01563,0.01421
1914.25781,0.01393
1912.50000,0.01277
1910.74219,0.01262
1908.98438,0.01432
1907.22656,0.01576
1905.46875,0.01553
1903.71094,0.01472
1901.95313,0.01440
1900.19531,0.01471
1898.43750,0.01537
1896.67969,0.01560
1894.92188,0.01488
1893.16406,0.01423
1891.40625,0.01517
1889.64844,0.01720
1887.89063,0.01779
1886.13281,0.01595
1884.37500,0.01334
1882.61719,0.01186
1880.85938,0.01195
1879.10156,0.01273
1877.34375,0.01374
1875.58594,0.01505
1873.82813,0.01645
1872.07031,0.01736
1870.31250,0.01688
1868.55469,0.01523
1866.79688,0.01482
1865.03906,0.01577
1863.28125,0.01575
1861.52344,0.01430
1859.76563,0.01321
1858.00781,0.01365
1856.25000,0.01495
1854.49219,0.01592
1852.73438,0.01596
1850.97656,0.01542
1849.21875,0.01523
1847.46094,0.01590
1845.70313,0.01666
1843.94531,0.01608
1842.18750,0.01476
1840.42969,0.01463
1838.67188,0.01537
1836.91406,0.01558
1835.15625,0.01494
1833.39844,0.01446
1831.64063,0.01493
1829.88281,0.01554
1828.12500,0.01479
1826.36719,0.01327
1824.60938,0.01269
1822.85156,0.01365
1821.09375,0.01460
1819.33594,0.01390
1817.57813,0.01255
1815.82031,0.01247
1814.06250,0.01292
1812.30469,0.01256
1810.54688,0.01235
1808.78906,0.01337
1807.03125,0.01444
1805.27344,0.01460
1803.51563,0.01446
1801.75781,0.01463
1800.00000,0.01513
1798.24219,0.01569
1796.48438,0.01565
1794.72656,0.01448
1792.96875,0.01304
1791.21094,0.01310
1789.45313,0.01425
1787.69531,0.01497
1785.93750,0.01484
1784.17969,0.01387
1782.42188,0.01296
1780.66406,0.01307
1778.90625,0.01403
1777.14844,0.01554
1775.39063,0.01770
1773.63281,0.01934
1771.87500,0.01802
1770.11719,0.01476
1768.35938,0.01294
1766.60156,0.01272
1764.84375,0.01300
1763.08594,0.01317
1761.32813,0.01288
1759.57031,0.01229
1757.81250,0.01215
1756.05469,0.01279
1754.29688,0.01387
1752.53906,0.01511
1750.78125,0.01640
1749.02344,0.01699
1747.26563,0.01669
1745.50781,0.01604
1743.75000,0.01522
1741.99219,0.01454
1740.23438,0.01442
1738.47656,0.01529
1736.71875,0.01732
1734.96094,0.01938
1733.20313,0.01919
1731.44531,0.01753
1729.68750,0.01604
1727.92969,0.01440
1726.17188,0.01301
1724.41406,0.01280
1722.65625,0.01460
1720.89844,0.01738
1719.14063,0.01830
1717.38281,0.01531
1715.62500,0.01208
1713.86719,0.01256
1712.10938,0.01486
1710.35156,0.01694
1708.59375,0.01775
1706.83594,0.01717
1705.07813,0.01640
1703.32031,0.01712
1701.56250,0.01872
1699.80469,0.01801
1698.04688,0.01484
1696.28906,0.01318
1694.53125,0.01306
1692.77344,0.01267
1691.01563,0.01220
1689.25781,0.01300
1687.50000,0.01545
1685.74219,0.01806
1683.98438,0.01836
1682.22656,0.01698
1680.46875,0.01710
1678.71094,0.01774
1676.95313,0.01706
1675.19531,0.01497
1673.43750,0.01346
1671.67969,0.01298
1669.92188,0.01238
1668.16406,0.01231
1666.40625,0.01321
1664.64844,0.01380
1662.89063,0.01368
1661.13281,0.01423
1659.37500,0.01599
1657.61719,0.01736
1655.85938,0.01741
1654.10156,0.01628
1652.34375,0.01520
1650.58594,0.01533
1648.82813,0.01576
1647.07031,0.01570
1645.31250,0.01570
1643.55469,0.01632
1641.79688,0.01628
1640.03906,0.01515
1638.28125,0.01410
1636.52344,0.01429
1634.76563,0.01496
1633.00781,0.01511
1631.25000,0.01558
1629.49219,0.01629
1627.73438,0.01641
1625.97656,0.01605
1624.21875,0.01593
1622.46094,0.01610
1620.70313,0.01639
1618.94531,0.01640
1617.18750,0.01588
1615.42969,0.01557
1613.67188,0.01599
1611.91406,0.01669
1610.15625,0.01712
1608.39844,0.01693
1606.64063,0.01654
1604.88281,0.01616
1603.12500,0.01555
1601.36719,0.01507
1599.60938,0.01524
1597.85156,0.01581
1596.09375,0.01588
1594.33594,0.01549
1592.57813,0.01568
1590.82031,0.01624
1589.06250,0.01633
1587.30469,0.01611
1585.54688,0.01581
1583.78906,0.01539
1582.03125,0.01518
1580.27344,0.01558
1578.51563,0.01648
1576.75781,0.01701
1575.00000,0.01657
1573.24219,0.01595
1571.48438,0.01509
1569.72656,0.01399
1567.96875,0.01394
1566.21094,0.01468
1564.45313,0.01519
1562.69531,0.01572
1560.93750,0.01684
1559.17969,0.01858
1557.42188,0.01894
1555.66406,0.01803
1553.90625,0.01746
1552.14844,0.01742
1550.39063,0.01733
1548.63281,0.01667
1546.87500,0.01604
1545.11719,0.01672
1543.35938,0.01988
1541.60156,0.02420
1539.84375,0.02368
1538.08594,0.02008
1536.32813,0.01947
1534.57031,0.02005
1532.81250,0.01921
1531.05469,0.01746
1529.29688,0.01633
1527.53906,0.01585
1525.78125,0.01611
1524.02344,0.01661
1522.26563,0.01674
1520.50781,0.01666
1518.75000,0.01636
1516.99219,0.01586
1515.23438,0.01504
1513.47656,0.01397
1511.71875,0.01355
1509.96094,0.01423
1508.20313,0.01496
1506.44531,0.01488
1504.68750,0.01533
1502.92969,0.01580
1501.17188,0.01549
1499.41406,0.01454
1497.65625,0.01374
1495.89844,0.01384
1494.14063,0.01449
1492.38281,0.01501
1490.62500,0.01540
1488.86719,0.01625
1487.10938,0.01714
1485.35156,0.01718
1483.59375,0.01706
1481.83594,0.01793
1480.07813,0.01974
1478.32031,0.02135
1476.56250,0.02227
1474.80469,0.02254
1473.04688,0.02219
1471.28906,0.02278
1469.53125,0.02514
1467.77344,0.02872
1466.01563,0.03397
1464.25781,0.03965
1462.50000,0.04212
1460.74219,0.04140
1458.98438,0.03946
1457.22656,0.03852
1455.46875,0.03981
1453.71094,0.04058
1451.95313,0.04003
1450.19531,0.03842
1448.43750,0.03554
1446.67969,0.03176
1444.92188,0.02832
1443.16406,0.02599
1441.40625,0.02496
1439.64844,0.02487
1437.89063,0.02492
1436.13281,0.02442
1434.37500,0.02342
1432.61719,0.02237
1430.85938,0.02113
1429.10156,0.01975
1427.34375,0.01874
1425.58594,0.01789
1423.82813,0.01716
1422.07031,0.01720
1420.31250,0.01760
1418.55469,0.01744
1416.79688,0.01728
1415.03906,0.01737
1413.28125,0.01707
1411.52344,0.01675
1409.76563,0.01736
1408.00781,0.01854
1406.25000,0.01905
1404.49219,0.01872
1402.73438,0.01859
1400.97656,0.01897
1399.21875,0.01889
1397.46094,0.01790
1395.70313,0.01699
1393.94531,0.01704
1392.18750,0.01809
1390.42969,0.01969
1388.67188,0.02123
1386.91406,0.02251
1385.15625,0.02429
1383.39844,0.02755
1381.64063,0.03348
1379.88281,0.04289
1378.12500,0.05338
1376.36719,0.05961
1374.60938,0.05720
1372.85156,0.04759
1371.09375,0.03738
1369.33594,0.03026
1367.57813,0.02654
1365.82031,0.02515
1364.06250,0.02522
1362.30469,0.02665
1360.54688,0.02816
1358.78906,0.02835
1357.03125,0.02770
1355.27344,0.02670
1353.51563,0.02478
1351.75781,0.02233
1350.00000,0.02110
1348.24219,0.02134
1346.48438,0.02131
1344.72656,0.02024
1342.96875,0.01945
1341.21094,0.02016
1339.45313,0.02131
1337.69531,0.02076
1335.93750,0.01894
1334.17969,0.01770
1332.42188,0.01763
1330.66406,0.01815
1328.90625,0.01838
1327.14844,0.01796
1325.39063,0.01748
1323.63281,0.01751
1321.87500,0.01753
1320.11719,0.01710
1318.35938,0.01671
1316.60156,0.01680
1314.84375,0.01751
1313.08594,0.01892
1311.32813,0.02026
1309.57031,0.02061
1307.81250,0.02027
1306.05469,0.01989
1304.29688,0.01949
1302.53906,0.01920
1300.78125,0.01938
1299.02344,0.01986
1297.26563,0.01996
1295.50781,0.01938
1293.75000,0.01863
1291.99219,0.01843
1290.23438,0.01855
1288.47656,0.01871
1286.71875,0.01922
1284.96094,0.01950
1283.20313,0.01921
1281.44531,0.01934
1279.68750,0.01991
1277.92969,0.01986
1276.17188,0.01942
1274.41406,0.01942
1272.65625,0.01969
1270.89844,0.01985
1269.14063,0.01948
1267.38281,0.01787
1265.62500,0.01554
1263.86719,0.01435
1262.10938,0.01517
1260.35156,0.01704
1258.59375,0.01861
1256.83594,0.01925
1255.07813,0.01879
1253.32031,0.01751
1251.56250,0.01646
1249.80469,0.01640
1248.04688,0.01704
1246.28906,0.01779
1244.53125,0.01823
1242.77344,0.01805
1241.01563,0.01723
1239.25781,0.01621
1237.50000,0.01549
1235.74219,0.01528
1233.98438,0.01590
1232.22656,0.01721
1230.46875,0.01801
1228.71094,0.01769
1226.95313,0.01711
1225.19531,0.01706
1223.43750,0.01760
1221.67969,0.01841
1219.92188,0.01888
1218.16406,0.01869
1216.40625,0.01796
1214.64844,0.01675
1212.89063,0.01544
1211.13281,0.01525
1209.37500,0.01666
1207.61719,0.01826
1205.85938,0.01889
1204.10156,0.01889
1202.34375,0.01850
1200.58594,0.01762
1198.82813,0.01682
1197.07031,0.01666
1195.31250,0.01701
1193.55469,0.01755
1191.79688,0.01791
1190.03906,0.01761
1188.28125,0.01679
1186.52344,0.01588
1184.76563,0.01504
1183.00781,0.01483
1181.25000,0.01562
1179.49219,0.01658
1177.73438,0.01702
1175.97656,0.01757
1174.21875,0.01882
1172.46094,0.02008
1170.70313,0.02034
1168.94531,0.01996
1167.18750,0.02030
1165.42969,0.02132
1163.67188,0.02155
1161.91406,0.02064
1160.15625,0.01961
1158.39844,0.01932
1156.64063,0.02012
1154.88281,0.02153
1153.12500,0.02244
1151.36719,0.02251
1149.60938,0.02214
1147.85156,0.02153
1146.09375,0.02060
1144.33594,0.01954
1142.57813,0.01904
1140.82031,0.01933
1139.06250,0.01960
1137.30469,0.01931
1135.54688,0.01882
1133.78906,0.01851
1132.03125,0.01851
1130.27344,0.01888
1128.51563,0.01919
1126.75781,0.01897
1125.00000,0.01839
1123.24219,0.01786
1121.48438,0.01741
1119.72656,0.01700
1117.96875,0.01707
1116.21094,0.01821
1114.45313,0.01992
1112.69531,0.02072
1110.93750,0.02012
1109.17969,0.01891
1107.42188,0.01800
1105.66406,0.01803
1103.90625,0.01910
1102.14844,0.02050
1100.39063,0.02091
1098.63281,0.01991
1096.87500,0.01888
1095.11719,0.01874
1093.35938,0.01830
1091.60156,0.01694
1089.84375,0.01621
1088.08594,0.01712
1086.32813,0.01863
1084.57031,0.01932
1082.81250,0.01870
1081.05469,0.01729
1079.29688,0.01643
1077.53906,0.01701
1075.78125,0.01843
1074.02344,0.01957
1072.26563,0.01961
1070.50781,0.01833
1068.75000,0.01719
1066.99219,0.01759
1065.23438,0.01828
1063.47656,0.01749
1061.71875,0.01588
1059.96094,0.01492
1058.20313,0.01511
1056.44531,0.01627
1054.68750,0.01714
1052.92969,0.01663
1051.17188,0.01592
1049.41406,0.01632
1047.65625,0.01706
1045.89844,0.01737
1044.14063,0.01753
1042.38281,0.01790
1040.62500,0.01850
1038.86719,0.01905
1037.10938,0.01912
1035.35156,0.01870
1033.59375,0.01857
1031.83594,0.01881
1030.07813,0.01802
1028.32031,0.01604
1026.56250,0.01458
1024.80469,0.01415
1023.04688,0.01445
1021.28906,0.01551
1019.53125,0.01683
1017.77344,0.01809
1016.01563,0.01914
1014.25781,0.01951
1012.50000,0.01895
1010.74219,0.01730
1008.98438,0.01544
1007.22656,0.01524
1005.46875,0.01718
1003.71094,0.02038
1001.95313,0.02393
1000.19531,0.02666
998.43750,0.02747
996.67969,0.02620
994.92188,0.02354
993.16406,0.02053
991.40625,0.01788
989.64844,0.01640
987.89063,0.01684
986.13281,0.01778
984.37500,0.01705
982.61719,0.01548
980.85938,0.01513
979.10156,0.01616
977.34375,0.01815
975.58594,0.02070
973.82813,0.02260
972.07031,0.02313
970.31250,0.02276
968.55469,0.02165
966.79688,0.01918
965.03906,0.01579
963.28125,0.01399
961.52344,0.01539
959.76563,0.01790
958.00781,0.01833
956.25000,0.01615
954.49219,0.01359
952.73438,0.01326
950.97656,0.01472
949.21875,0.01496
947.46094,0.01402
945.70313,0.01473
943.94531,0.01674
942.18750,0.01767
940.42969,0.01708
938.67188,0.01592
936.91406,0.01558
935.15625,0.01626
933.39844,0.01585
931.64063,0.01398
929.88281,0.01351
928.12500,0.01500
926.36719,0.01581
924.60938,0.01543
922.85156,0.01553
921.09375,0.01615
919.33594,0.01580
917.57813,0.01448
915.82031,0.01342
914.06250,0.01272
912.30469,0.01233
910.54688,0.01318
908.78906,0.01456
907.03125,0.01450
905.27344,0.01330
903.51563,0.01232
901.75781,0.01211
900.00000,0.01327
898.24219,0.01478
896.48438,0.01395
894.72656,0.01091
892.96875,0.00875
891.21094,0.00912
889.45313,0.01084
887.69531,0.01165
885.93750,0.01152
884.17969,0.01280
882.42188,0.01468
880.66406,0.01371
878.90625,0.01151
877.14844,0.01296
875.39063,0.01810
873.63281,0.02285
871.87500,0.02425
870.11719,0.02187
868.35938,0.01753
866.60156,0.01396
864.84375,0.01214
863.08594,0.01060
861.32813,0.00944
859.57031,0.01095
857.81250,0.01317
856.05469,0.01220
854.29688,0.01020
852.53906,0.01132
850.78125,0.01582
849.02344,0.02193
847.26563,0.02655
845.50781,0.02677
843.75000,0.02423
841.99219,0.02324
840.23438,0.02446
838.47656,0.02353
836.71875,0.01864
834.96094,0.01404
833.20313,0.01222
831.44531,0.01172
829.68750,0.01316
827.92969,0.01621
826.17188,0.01630
824.41406,0.01164
822.65625,0.00699
820.89844,0.00715
819.14063,0.01044
817.38281,0.01303
815.62500,0.01575
813.86719,0.01985
812.10938,0.02217
810.35156,0.01915
808.59375,0.01400
806.83594,0.01473
805.07813,0.02115
803.32031,0.02561
801.56250,0.02666
799.80469,0.02615
798.04688,0.02256
796.28906,0.01623
794.53125,0.00955
792.77344,0.00411
791.01563,0.00320
789.25781,0.00996
787.50000,0.01969
785.74219,0.02309
783.98438,0.01890
782.22656,0.01253
780.46875,0.00606
778.71094,0.00210
776.95313,0.00505
775.19531,0.01335
773.43750,0.02320
771.67969,0.03030
769.92188,0.02963
768.16406,0.02247
766.40625,0.01900
764.64844,0.02703
762.89063,0.04250
761.13281,0.05529
759.37500,0.05919
757.61719,0.05160
755.85938,0.03491
754.10156,0.02313
752.34375,0.03034
750.58594,0.04339
748.82813,0.04169
747.07031,0.02369
745.31250,0.00629
743.55469,-0.00389
741.79688,-0.01929
740.03906,-0.03570
738.28125,-0.03793
736.52344,-0.03213
734.76563,-0.02583
733.00781,-0.00226
731.25000,0.03632
729.49219,0.05154
727.73438,0.03799
725.97656,0.03022
724.21875,0.03983
722.46094,0.04940
720.70313,0.05470
718.94531,0.05982
717.18750,0.05561
715.42969,0.04741
713.67188,0.04739
711.91406,0.03994
710.15625,0.01161
708.39844,-0.00940
706.64063,0.00225
704.88281,0.02869
703.12500,0.04520
701.36719,0.04911
699.60938,0.06309
697.85156,0.08969
696.09375,0.09802
694.33594,0.08724
692.57813,0.08895
690.82031,0.09460
689.06250,0.06584
687.30469,-0.00046
685.54688,-0.02225
683.78906,0.06126
682.03125,0.18897
680.27344,0.21768
678.51563,0.12653
