3997.26563,0.01140
3995.50781,0.00560
3993.75000,0.00107
3991.99219,0.00173
3990.23438,0.00546
3988.47656,0.00914
3986.71875,0.01050
3984.96094,0.00865
3983.20313,0.00581
3981.44531,0.00464
3979.68750,0.00583
3977.92969,0.00860
3976.17188,0.01098
3974.41406,0.01115
3972.65625,0.00978
3970.89844,0.00942
3969.14063,0.01063
3967.38281,0.01169
3965.62500,0.01190
3963.86719,0.01219
3962.10938,0.01266
3960.35156,0.01198
3958.59375,0.00928
3956.83594,0.00608
3955.07813,0.00525
3953.32031,0.00847
3951.56250,0.01437
3949.80469,0.01762
3948.04688,0.01355
3946.28906,0.00692
3944.53125,0.00563
3942.77344,0.00941
3941.01563,0.01231
3939.25781,0.01240
3937.50000,0.01232
3935.74219,0.01330
3933.98438,0.01441
3932.22656,0.01530
3930.46875,0.01568
3928.71094,0.01425
3926.95313,0.01238
3925.19531,0.01315
3923.43750,0.01567
3921.67969,0.01559
3919.92188,0.01280
3918.16406,0.01100
3916.40625,0.01158
3914.64844,0.01245
3912.89063,0.01295
3911.13281,0.01275
3909.37500,0.01051
3907.61719,0.00777
3905.85938,0.00661
3904.10156,0.00525
3902.34375,0.00370
3900.58594,0.00576
3898.82813,0.01127
3897.07031,0.01702
3895.31250,0.02017
3893.55469,0.01926
3891.79688,0.01532
3890.03906,0.01367
3888.28125,0.01653
3886.52344,0.01744
3884.76563,0.01001
3883.00781,0.00104
3881.25000,-0.00106
3879.49219,0.00126
3877.73438,0.00284
3875.97656,0.00301
3874.21875,0.00379
3872.46094,0.00685
3870.70313,0.01029
3868.94531,0.01024
3867.18750,0.00832
3865.42969,0.00923
3863.67188,0.01259
3861.91406,0.01336
3860.15625,0.01132
3858.39844,0.01013
3856.64063,0.00979
3854.88281,0.00744
3853.12500,0.00498
3851.36719,0.00908
3849.60938,0.01377
3847.85156,0.01507
3846.09375,0.01336
3844.33594,0.00918
3842.57813,0.00487
3840.82031,0.00322
3839.06250,0.00317
3837.30469,0.00340
3835.54688,0.00421
3833.78906,0.00505
3832.03125,0.00668
3830.27344,0.00937
3828.51563,0.01168
3826.75781,0.01255
3825.00000,0.01132
3823.24219,0.00953
3821.48438,0.01055
3819.72656,0.01319
3817.96875,0.01229
3816.21094,0.00929
3814.45313,0.00817
3812.69531,0.00856
3810.93750,0.00913
3809.17969,0.01021
3807.42188,0.00892
3805.66406,0.00285
3803.90625,-0.00122
3802.14844,0.00099
3800.39063,0.00622
3798.63281,0.01094
3796.87500,0.01454
3795.11719,0.01425
3793.35938,0.01152
3791.60156,0.01124
3789.84375,0.01267
3788.08594,0.01294
3786.32813,0.01317
3784.57031,0.01512
3782.81250,0.01718
3781.05469,0.01735
3779.29688,0.01546
3777.53906,0.01192
3775.78125,0.00760
3774.02344,0.00504
3772.26563,0.00660
3770.50781,0.01076
3768.75000,0.01375
3766.99219,0.01500
3765.23438,0.01479
3763.47656,0.01357
3761.71875,0.01368
3759.96094,0.01401
3758.20313,0.01101
3756.44531,0.00783
3754.68750,0.00952
3752.92969,0.01548
3751.17188,0.02075
3749.41406,0.01883
3747.65625,0.01376
3745.89844,0.01064
3744.14063,0.01077
3742.38281,0.01372
3740.62500,0.01444
3738.86719,0.01143
3737.10938,0.00706
3735.35156,0.00330
3733.59375,0.00151
3731.83594,0.00312
3730.07813,0.00630
3728.32031,0.00956
3726.56250,0.01224
3724.80469,0.01245
3723.04688,0.01047
3721.28906,0.00991
3719.53125,0.01157
3717.77344,0.01279
3716.01563,0.01282
3714.25781,0.01259
3712.50000,0.01192
3710.74219,0.01100
3708.98438,0.01169
3707.22656,0.01295
3705.46875,0.01259
3703.71094,0.01158
3701.95313,0.01280
3700.19531,0.01394
3698.43750,0.01112
3696.67969,0.00788
3694.92188,0.00768
3693.16406,0.01021
3691.40625,0.01524
3689.64844,0.01903
3687.89063,0.01585
3686.13281,0.01129
3684.37500,0.00992
3682.61719,0.01012
3680.85938,0.01038
3679.10156,0.01174
3677.34375,0.01651
3675.58594,0.02197
3673.82813,0.01997
3672.07031,0.01447
3670.31250,0.01277
3668.55469,0.01683
3666.79688,0.02022
3665.03906,0.01806
3663.28125,0.01277
3661.52344,0.01071
3659.76563,0.01499
3658.00781,0.02162
3656.25000,0.02465
3654.49219,0.02266
3652.73438,0.01971
3650.97656,0.01672
3649.21875,0.00922
3647.46094,-0.00048
3645.70313,-0.00193
3643.94531,0.00301
3642.18750,0.00873
3640.42969,0.01215
3638.67188,0.01314
3636.91406,0.01262
3635.15625,0.01098
3633.39844,0.00892
3631.64063,0.00774
3629.88281,0.00900
3628.12500,0.01297
3626.36719,0.01567
3624.60938,0.01524
3622.85156,0.01242
3621.09375,0.00860
3619.33594,0.00501
3617.57813,0.00078
3615.82031,-0.00220
3614.06250,0.00099
3612.30469,0.00966
3610.54688,0.01558
3608.78906,0.01440
3607.03125,0.01007
3605.27344,0.00827
3603.51563,0.00975
3601.75781,0.01213
3600.00000,0.01310
3598.24219,0.01277
3596.48438,0.01334
3594.72656,0.01495
3592.96875,0.01513
3591.21094,0.01360
3589.45313,0.01171
3587.69531,0.00869
3585.93750,0.00542
3584.17969,0.00486
3582.42188,0.00527
3580.66406,0.00455
3578.90625,0.00329
3577.14844,0.00224
3575.39063,0.00240
3573.63281,0.00541
3571.87500,0.00933
3570.11719,0.00985
3568.35938,0.00692
3566.60156,0.00654
3564.84375,0.01137
3563.08594,0.01668
3561.32813,0.02061
3559.57031,0.02141
3557.81250,0.01841
3556.05469,0.01625
3554.29688,0.01693
3552.53906,0.01637
3550.78125,0.01353
3549.02344,0.01162
3547.26563,0.01048
3545.50781,0.00881
3543.75000,0.00771
3541.99219,0.00741
3540.23438,0.00646
3538.47656,0.00525
3536.71875,0.00641
3534.96094,0.01015
3533.20313,0.01349
3531.44531,0.01460
3529.68750,0.01404
3527.92969,0.01467
3526.17188,0.01891
3524.41406,0.02397
3522.65625,0.02439
3520.89844,0.01987
3519.14063,0.01556
3517.38281,0.01401
3515.62500,0.01292
3513.86719,0.01061
3512.10938,0.00903
3510.35156,0.01064
3508.59375,0.01520
3506.83594,0.01929
3505.07813,0.01935
3503.32031,0.01573
3501.56250,0.01259
3499.80469,0.01283
3498.04688,0.01553
3496.28906,0.01823
3494.53125,0.01945
3492.77344,0.01933
3491.01563,0.01793
3489.25781,0.01507
3487.50000,0.01185
3485.74219,0.00951
3483.98438,0.00777
3482.22656,0.00741
3480.46875,0.01043
3478.71094,0.01514
3476.95313,0.01711
3475.19531,0.01556
3473.43750,0.01361
3471.67969,0.01354
3469.92188,0.01474
3468.16406,0.01565
3466.40625,0.01653
3464.64844,0.01778
3462.89063,0.01751
3461.13281,0.01541
3459.37500,0.01378
3457.61719,0.01331
3455.85938,0.01402
3454.10156,0.01639
3452.34375,0.01902
3450.58594,0.01960
3448.82813,0.01722
3447.07031,0.01394
3445.31250,0.01320
3443.55469,0.01365
3441.79688,0.01221
3440.03906,0.01081
3438.28125,0.01174
3436.52344,0.01225
3434.76563,0.00986
3433.00781,0.00733
3431.25000,0.00882
3429.49219,0.01314
3427.73438,0.01522
3425.97656,0.01361
3424.21875,0.01153
3422.46094,0.01120
3420.70313,0.01180
3418.94531,0.01144
3417.18750,0.00974
3415.42969,0.00901
3413.67188,0.01088
3411.91406,0.01269
3410.15625,0.01168
3408.39844,0.01092
3406.64063,0.01442
3404.88281,0.01874
3403.12500,0.01798
3401.36719,0.01385
3399.60938,0.01151
3397.85156,0.01202
3396.09375,0.01492
3394.33594,0.01842
3392.57813,0.01816
3390.82031,0.01404
3389.06250,0.01236
3387.30469,0.01519
3385.54688,0.01574
3383.78906,0.00994
3382.03125,0.00462
3380.27344,0.00696
3378.51563,0.01262
3376.75781,0.01231
3375.00000,0.00701
3373.24219,0.00536
3371.48438,0.00964
3369.72656,0.01514
3367.96875,0.01812
3366.21094,0.01808
3364.45313,0.01633
3362.69531,0.01429
3360.93750,0.01274
3359.17969,0.01278
3357.42188,0.01397
3355.66406,0.01356
3353.90625,0.01105
3352.14844,0.00975
3350.39063,0.01154
3348.63281,0.01396
3346.87500,0.01312
3345.11719,0.00864
3343.35938,0.00533
3341.60156,0.00742
3339.84375,0.01182
3338.08594,0.01273
3336.32813,0.01114
3334.57031,0.01168
3332.81250,0.01383
3331.05469,0.01484
3329.29688,0.01517
3327.53906,0.01573
3325.78125,0.01621
3324.02344,0.01572
3322.26563,0.01339
3320.50781,0.01095
3318.75000,0.01032
3316.99219,0.00968
3315.23438,0.00792
3313.47656,0.00722
3311.71875,0.00845
3309.96094,0.01050
3308.20313,0.01296
3306.44531,0.01447
3304.68750,0.01305
3302.92969,0.01054
3301.17188,0.01055
3299.41406,0.01223
3297.65625,0.01184
3295.89844,0.00951
3294.14063,0.00881
3292.38281,0.01001
3290.62500,0.01077
3288.86719,0.01253
3287.10938,0.01680
3285.35156,0.01925
3283.59375,0.01659
3281.83594,0.01214
3280.07813,0.00911
3278.32031,0.00759
3276.56250,0.00889
3274.80469,0.01319
3273.04688,0.01662
3271.28906,0.01726
3269.53125,0.01747
3267.77344,0.01836
3266.01563,0.01825
3264.25781,0.01595
3262.50000,0.01281
3260.74219,0.01072
3258.98438,0.00996
3257.22656,0.01039
3255.46875,0.01217
3253.71094,0.01439
3251.95313,0.01481
3250.19531,0.01316
3248.43750,0.01211
3246.67969,0.01240
3244.92188,0.01185
3243.16406,0.01079
3241.40625,0.01179
3239.64844,0.01444
3237.89063,0.01566
3236.13281,0.01466
3234.37500,0.01332
3232.61719,0.01229
3230.85938,0.01202
3229.10156,0.01343
3227.34375,0.01442
3225.58594,0.01280
3223.82813,0.01066
3222.07031,0.01080
3220.31250,0.01268
3218.55469,0.01356
3216.79688,0.01268
3215.03906,0.01212
3213.28125,0.01301
3211.52344,0.01433
3209.76563,0.01451
3208.00781,0.01276
3206.25000,0.01093
3204.49219,0.01171
3202.73438,0.01327
3200.97656,0.01183
3199.21875,0.00914
3197.46094,0.00953
3195.70313,0.01213
3193.94531,0.01345
3192.18750,0.01347
3190.42969,0.01386
3188.67188,0.01409
3186.91406,0.01319
3185.15625,0.01227
3183.39844,0.01199
3181.64063,0.01165
3179.88281,0.01159
3178.12500,0.01191
3176.36719,0.01190
3174.60938,0.01244
3172.85156,0.01428
3171.09375,0.01569
3169.33594,0.01558
3167.57813,0.01545
3165.82031,0.01642
3164.06250,0.01763
3162.30469,0.01742
3160.54688,0.01485
3158.78906,0.01152
3157.03125,0.01077
3155.27344,0.01302
3153.51563,0.01518
3151.75781,0.01557
3150.00000,0.01578
3148.24219,0.01707
3146.48438,0.01847
3144.72656,0.01894
3142.96875,0.01799
3141.21094,0.01479
3139.45313,0.01075
3137.69531,0.00961
3135.93750,0.01235
3134.17969,0.01612
3132.42188,0.01845
3130.66406,0.01871
3128.90625,0.01714
3127.14844,0.01495
3125.39063,0.01402
3123.63281,0.01493
3121.87500,0.01596
3120.11719,0.01536
3118.35938,0.01362
3116.60156,0.01264
3114.84375,0.01301
3113.08594,0.01378
3111.32813,0.01491
3109.57031,0.01644
3107.81250,0.01637
3106.05469,0.01321
3104.29688,0.00874
3102.53906,0.00602
3100.78125,0.00647
3099.02344,0.00902
3097.26563,0.01230
3095.50781,0.01540
3093.75000,0.01637
3091.99219,0.01493
3090.23438,0.01420
3088.47656,0.01562
3086.71875,0.01707
3084.96094,0.01716
3083.20313,0.01669
3081.44531,0.01628
3079.68750,0.01532
3077.92969,0.01265
3076.17188,0.00847
3074.41406,0.00561
3072.65625,0.00617
3070.89844,0.00876
3069.14063,0.01110
3067.38281,0.01206
3065.62500,0.01180
3063.86719,0.01175
3062.10938,0.01224
3060.35156,0.01213
3058.59375,0.01154
3056.83594,0.01171
3055.07813,0.01318
3053.32031,0.01515
3051.56250,0.01665
3049.80469,0.01784
3048.04688,0.01860
3046.28906,0.01805
3044.53125,0.01610
3042.77344,0.01412
3041.01563,0.01421
3039.25781,0.01647
3037.50000,0.01852
3035.74219,0.01873
3033.98438,0.01724
3032.22656,0.01504
3030.46875,0.01323
3028.71094,0.01156
3026.95313,0.00935
3025.19531,0.00794
3023.43750,0.00940
3021.67969,0.01256
3019.92188,0.01358
3018.16406,0.01177
3016.40625,0.01026
3014.64844,0.01002
3012.89063,0.00992
3011.13281,0.01076
3009.37500,0.01326
3007.61719,0.01541
3005.85938,0.01533
3004.10156,0.01397
3002.34375,0.01374
3000.58594,0.01508
2998.82813,0.01573
2997.07031,0.01436
2995.31250,0.01318
2993.55469,0.01494
2991.79688,0.01824
2990.03906,0.01912
2988.28125,0.01710
2986.52344,0.01510
2984.76563,0.01477
2983.00781,0.01618
2981.25000,0.01906
2979.49219,0.02165
2977.73438,0.02165
2975.97656,0.01955
2974.21875,0.01832
2972.46094,0.01965
2970.70313,0.02239
2968.94531,0.02533
2967.18750,0.02819
2965.42969,0.03013
2963.67188,0.03089
2961.91406,0.03191
2960.15625,0.03436
2958.39844,0.03687
2956.64063,0.03710
2954.88281,0.03565
2953.12500,0.03494
2951.36719,0.03515
2949.60938,0.03600
2947.85156,0.03872
2946.09375,0.04328
2944.33594,0.04829
2942.57813,0.05409
2940.82031,0.06137
2939.06250,0.06902
2937.30469,0.07618
2935.54688,0.08397
2933.78906,0.09380
2932.03125,0.10601
2930.27344,0.12117
2928.51563,0.13991
2926.75781,0.16139
2925.00000,0.18501
2923.24219,0.21156
2921.48438,0.23999
2919.72656,0.26626
2917.96875,0.28421
2916.21094,0.28589
2914.45313,0.26887
2912.69531,0.24175
2910.93750,0.21483
2909.17969,0.19203
2907.42188,0.17348
2905.66406,0.15869
2903.90625,0.14633
2902.14844,0.13518
2900.39063,0.12544
2898.63281,0.11777
2896.87500,0.11175
2895.11719,0.10606
2893.35938,0.10029
2891.60156,0.09447
2889.84375,0.08749
2888.08594,0.07979
2886.32813,0.07401
2884.57031,0.07072
2882.81250,0.06812
2881.05469,0.06537
2879.29688,0.06275
2877.53906,0.06000
2875.78125,0.05676
2874.02344,0.05442
2872.26563,0.05457
2870.50781,0.05613
2868.75000,0.05732
2866.99219,0.05843
2865.23438,0.06085
2863.47656,0.06589
2861.71875,0.07430
2859.96094,0.08627
2858.20313,0.10236
2856.44531,0.12377
2854.68750,0.15102
2852.92969,0.18167
2851.17188,0.20812
2849.41406,0.21846
2847.65625,0.20605
2845.89844,0.17848
2844.14063,0.14815
2842.38281,0.12010
2840.62500,0.09510
2838.86719,0.07563
2837.10938,0.06338
2835.35156,0.05605
2833.59375,0.05014
2831.83594,0.04470
2830.07813,0.04046
2828.32031,0.03778
2826.56250,0.03647
2824.80469,0.03574
2823.04688,0.03451
2821.28906,0.03231
2819.53125,0.02927
2817.77344,0.02602
2816.01563,0.02323
2814.25781,0.02158
2812.50000,0.02167
2810.74219,0.02289
2808.98438,0.02376
2807.22656,0.02376
2805.46875,0.02325
2803.71094,0.02243
2801.95313,0.02165
2800.19531,0.02162
2798.43750,0.02201
2796.67969,0.02115
2794.92188,0.01923
2793.16406,0.01919
2791.40625,0.02197
2789.64844,0.02408
2787.89063,0.02239
2786.13281,0.01893
2784.37500,0.01748
2782.61719,0.01835
2780.85938,0.01953
2779.10156,0.01989
2777.34375,0.01928
2775.58594,0.01818
2773.82813,0.01729
2772.07031,0.01683
2770.31250,0.01681
2768.55469,0.01712
2766.79688,0.01735
2765.03906,0.01725
2763.28125,0.01700
2761.52344,0.01681
2759.76563,0.01644
2758.00781,0.01587
2756.25000,0.01607
2754.49219,0.01704
2752.73438,0.01742
2750.97656,0.01743
2749.21875,0.01824
2747.46094,0.01924
2745.70313,0.01955
2743.94531,0.01949
2742.18750,0.01919
2740.42969,0.01850
2738.67188,0.01763
2736.91406,0.01750
2735.15625,0.01864
2733.39844,0.01954
2731.64063,0.01893
2729.88281,0.01797
2728.12500,0.01785
2726.36719,0.01805
2724.60938,0.01770
2722.85156,0.01723
2721.09375,0.01763
2719.33594,0.01813
2717.57813,0.01759
2715.82031,0.01692
2714.06250,0.01652
2712.30469,0.01532
2710.54688,0.01404
2708.78906,0.01450
2707.03125,0.01633
2705.27344,0.01775
2703.51563,0.01809
2701.75781,0.01768
2700.00000,0.01701
2698.24219,0.01647
2696.48438,0.01611
2694.72656,0.01544
2692.96875,0.01441
2691.21094,0.01409
2689.45313,0.01455
2687.69531,0.01439
2685.93750,0.01433
2684.17969,0.01600
2682.42188,0.01776
2680.66406,0.01820
2678.90625,0.01884
2677.14844,0.01985
2675.39063,0.01955
2673.63281,0.01804
2671.87500,0.01700
2670.11719,0.01730
2668.35938,0.01792
2666.60156,0.01744
2664.84375,0.01654
2663.08594,0.01642
2661.32813,0.01660
2659.57031,0.01625
2657.81250,0.01574
2656.05469,0.01570
2654.29688,0.01589
2652.53906,0.01537
2650.78125,0.01380
2649.02344,0.01235
2647.26563,0.01252
2645.50781,0.01411
2643.75000,0.01540
2641.99219,0.01562
2640.23438,0.01555
2638.47656,0.01573
2636.71875,0.01592
2634.96094,0.01610
2633.20313,0.01656
2631.44531,0.01705
2629.68750,0.01680
2627.92969,0.01627
2626.17188,0.01680
2624.41406,0.01774
2622.65625,0.01716
2620.89844,0.01552
2619.14063,0.01507
2617.38281,0.01574
2615.62500,0.01527
2613.86719,0.01333
2612.10938,0.01243
2610.35156,0.01380
2608.59375,0.01560
2606.83594,0.01618
2605.07813,0.01583
2603.32031,0.01518
2601.56250,0.01443
2599.80469,0.01375
2598.04688,0.01378
2596.28906,0.01507
2594.53125,0.01684
2592.77344,0.01788
2591.01563,0.01796
2589.25781,0.01742
2587.50000,0.01667
2585.74219,0.01569
2583.98438,0.01409
2582.22656,0.01258
2580.46875,0.01245
2578.71094,0.01375
2576.95313,0.01549
2575.19531,0.01672
2573.43750,0.01701
2571.67969,0.01635
2569.92188,0.01488
2568.16406,0.01321
2566.40625,0.01219
2564.64844,0.01182
2562.89063,0.01139
2561.13281,0.01116
2559.37500,0.01201
2557.61719,0.01362
2555.85938,0.01464
2554.10156,0.01424
2552.34375,0.01258
2550.58594,0.01049
2548.82813,0.00904
2547.07031,0.00882
2545.31250,0.00981
2543.55469,0.01169
2541.79688,0.01342
2540.03906,0.01355
2538.28125,0.01243
2536.52344,0.01241
2534.76563,0.01449
2533.00781,0.01702
2531.25000,0.01795
2529.49219,0.01674
2527.73438,0.01483
2525.97656,0.01436
2524.21875,0.01559
2522.46094,0.01628
2520.70313,0.01459
2518.94531,0.01192
2517.18750,0.01065
2515.42969,0.01074
2513.67188,0.01116
2511.91406,0.01218
2510.15625,0.01375
2508.39844,0.01470
2506.64063,0.01468
2504.88281,0.01456
2503.12500,0.01501
2501.36719,0.01592
2499.60938,0.01671
2497.85156,0.01694
2496.09375,0.01657
2494.33594,0.01579
2492.57813,0.01488
2490.82031,0.01384
2489.06250,0.01266
2487.30469,0.01212
2485.54688,0.01265
2483.78906,0.01302
2482.03125,0.01223
2480.27344,0.01089
2478.51563,0.00997
2476.75781,0.00970
2475.00000,0.01008
2473.24219,0.01149
2471.48438,0.01354
2469.72656,0.01455
2467.96875,0.01380
2466.21094,0.01246
2464.45313,0.01171
2462.69531,0.01157
2460.93750,0.01126
2459.17969,0.01092
2457.42188,0.01174
2455.66406,0.01340
2453.90625,0.01434
2452.14844,0.01406
2450.39063,0.01295
2448.63281,0.01179
2446.87500,0.01133
2445.11719,0.01148
2443.35938,0.01230
2441.60156,0.01350
2439.84375,0.01331
2438.08594,0.01124
2436.32813,0.00928
2434.57031,0.00875
2432.81250,0.00947
2431.05469,0.01064
2429.29688,0.01124
2427.53906,0.01111
2425.78125,0.01087
2424.02344,0.01079
2422.26563,0.01100
2420.50781,0.01150
2418.75000,0.01188
2416.99219,0.01198
2415.23438,0.01241
2413.47656,0.01353
2411.71875,0.01494
2409.96094,0.01641
2408.20313,0.01741
2406.44531,0.01654
2404.68750,0.01368
2402.92969,0.01095
2401.17188,0.01017
2399.41406,0.01115
2397.65625,0.01231
2395.89844,0.01204
2394.14063,0.01035
2392.38281,0.00933
2390.62500,0.01048
2388.86719,0.01262
2387.10938,0.01390
2385.35156,0.01412
2383.59375,0.01403
2381.83594,0.01409
2380.07813,0.01459
2378.32031,0.01577
2376.56250,0.01716
2374.80469,0.01836
2373.04688,0.02043
2371.28906,0.02302
2369.53125,0.02272
2367.77344,0.01940
2366.01563,0.01740
2364.25781,0.01773
2362.50000,0.01750
2360.74219,0.01891
2358.98438,0.02485
2357.22656,0.02675
2355.46875,0.01920
2353.71094,0.01249
2351.95313,0.01323
2350.19531,0.01650
2348.43750,0.01831
2346.67969,0.01885
2344.92188,0.02022
2343.16406,0.02242
2341.40625,0.02168
2339.64844,0.01848
2337.89063,0.01740
2336.13281,0.01871
2334.37500,0.02015
2332.61719,0.02175
2330.85938,0.02420
2329.10156,0.02654
2327.34375,0.02623
2325.58594,0.02282
2323.82813,0.02093
2322.07031,0.02316
2320.31250,0.02506
2318.55469,0.02355
2316.79688,0.02060
2315.03906,0.01768
2313.28125,0.01470
2311.52344,0.01260
2309.76563,0.01286
2308.00781,0.01496
2306.25000,0.01679
2304.49219,0.01757
2302.73438,0.01728
2300.97656,0.01547
2299.21875,0.01327
2297.46094,0.01281
2295.70313,0.01369
2293.94531,0.01397
2292.18750,0.01346
2290.42969,0.01296
2288.67188,0.01287
2286.91406,0.01306
2285.15625,0.01249
2283.39844,0.01105
2281.64063,0.01038
2279.88281,0.01118
2278.12500,0.01232
2276.36719,0.01293
2274.60938,0.01309
2272.85156,0.01339
2271.09375,0.01429
2269.33594,0.01547
2267.57813,0.01639
2265.82031,0.01691
2264.06250,0.01665
2262.30469,0.01519
2260.54688,0.01358
2258.78906,0.01324
2257.03125,0.01381
2255.27344,0.01431
2253.51563,0.01461
2251.75781,0.01466
2250.00000,0.01419
2248.24219,0.01320
2246.48438,0.01190
2244.72656,0.01096
2242.96875,0.01143
2241.21094,0.01310
2239.45313,0.01430
2237.69531,0.01396
2235.93750,0.01276
2234.17969,0.01245
2232.42188,0.01380
2230.66406,0.01479
2228.90625,0.01360
2227.14844,0.01192
2225.39063,0.01172
2223.63281,0.01210
2221.87500,0.01159
2220.11719,0.01051
2218.35938,0.01008
2216.60156,0.01043
2214.84375,0.01079
2213.08594,0.01138
2211.32813,0.01276
2209.57031,0.01392
2207.81250,0.01400
2206.05469,0.01401
2204.29688,0.01413
2202.53906,0.01305
2200.78125,0.01075
2199.02344,0.00866
2197.26563,0.00782
2195.50781,0.00857
2193.75000,0.01036
2191.99219,0.01172
2190.23438,0.01184
2188.47656,0.01156
2186.71875,0.01205
2184.96094,0.01301
2183.20313,0.01359
2181.44531,0.01390
2179.68750,0.01414
2177.92969,0.01368
2176.17188,0.01244
2174.41406,0.01160
2172.65625,0.01167
2170.89844,0.01187
2169.14063,0.01204
2167.38281,0.01240
2165.62500,0.01236
2163.86719,0.01220
2162.10938,0.01300
2160.35156,0.01387
2158.59375,0.01339
2156.83594,0.01281
2155.07813,0.01368
2153.32031,0.01483
2151.56250,0.01443
2149.80469,0.01300
2148.04688,0.01208
2146.28906,0.01154
2144.53125,0.01091
2142.77344,0.01122
2141.01563,0.01279
2139.25781,0.01433
2137.50000,0.01463
2135.74219,0.01339
2133.98438,0.01159
2132.22656,0.01075
2130.46875,0.01114
2128.71094,0.01190
2126.95313,0.01224
2125.19531,0.01184
2123.43750,0.01102
2121.67969,0.01078
2119.92188,0.01160
2118.16406,0.01281
2116.40625,0.01369
2114.64844,0.01405
2112.89063,0.01392
2111.13281,0.01351
2109.37500,0.01270
2107.61719,0.01133
2105.85938,0.01033
2104.10156,0.01114
2102.34375,0.01326
2100.58594,0.01465
2098.82813,0.01456
2097.07031,0.01440
2095.31250,0.01533
2093.55469,0.01619
2091.79688,0.01518
2090.03906,0.01293
2088.28125,0.01151
2086.52344,0.01141
2084.76563,0.01178
2083.00781,0.01236
2081.25000,0.01331
2079.49219,0.01457
2077.73438,0.01560
2075.97656,0.01545
2074.21875,0.01383
2072.46094,0.01203
2070.70313,0.01154
2068.94531,0.01191
2067.18750,0.01206
2065.42969,0.01213
2063.67188,0.01251
2061.91406,0.01296
2060.15625,0.01309
2058.39844,0.01271
2056.64063,0.01246
2054.88281,0.01348
2053.12500,0.01547
2051.36719,0.01649
2049.60938,0.01567
2047.85156,0.01422
2046.09375,0.01308
2044.33594,0.01237
2042.57813,0.01265
2040.82031,0.01405
2039.06250,0.01512
2037.30469,0.01452
2035.54688,0.01319
2033.78906,0.01273
2032.03125,0.01281
2030.27344,0.01281
2028.51563,0.01300
2026.75781,0.01301
2025.00000,0.01234
2023.24219,0.01170
2021.48438,0.01212
2019.72656,0.01334
2017.96875,0.01373
2016.21094,0.01231
2014.45313,0.01039
2012.69531,0.00962
2010.93750,0.00988
2009.17969,0.00985
2007.42188,0.00935
2005.66406,0.01006
2003.90625,0.01268
2002.14844,0.01510
2000.39063,0.01556
1998.63281,0.01499
1996.87500,0.01463
1995.11719,0.01413
1993.35938,0.01323
1991.60156,0.01244
1989.84375,0.01196
1988.08594,0.01173
1986.32813,0.01221
1984.57031,0.01351
1982.81250,0.01410
1981.05469,0.01301
1979.29688,0.01169
1977.53906,0.01156
1975.78125,0.01227
1974.02344,0.01322
1972.26563,0.01389
1970.50781,0.01365
1968.75000,0.01277
1966.99219,0.01206
1965.23438,0.01144
1963.47656,0.01090
1961.71875,0.01142
1959.96094,0.01261
1958.20313,0.01255
1956.44531,0.01119
1954.68750,0.01043
1952.92969,0.01092
1951.17188,0.01195
1949.41406,0.01309
1947.65625,0.01380
1945.89844,0.01334
1944.14063,0.01233
1942.38281,0.01209
1940.62500,0.01269
1938.86719,0.01371
1937.10938,0.01473
1935.35156,0.01485
1933.59375,0.01368
1931.83594,0.01240
1930.07813,0.01251
1928.32031,0.01388
1926.56250,0.01501
1924.80469,0.01504
1923.04688,0.01446
1921.28906,0.01419
1919.53125,0.01418
1917.77344,0.01399
1916.01563,0.01374
1914.25781,0.01357
1912.50000,0.01377
1910.74219,0.01463
1908.98438,0.01539
1907.22656,0.01544
1905.46875,0.01524
1903.71094,0.01480
1901.95313,0.01397
1900.19531,0.01313
1898.43750,0.01254
1896.67969,0.01241
1894.92188,0.01313
1893.16406,0.01427
1891.40625,0.01462
1889.64844,0.01389
1887.89063,0.01328
1886.13281,0.01346
1884.37500,0.01368
1882.61719,0.01355
1880.85938,0.01368
1879.10156,0.01440
1877.34375,0.01502
1875.58594,0.01486
1873.82813,0.01427
1872.07031,0.01392
1870.31250,0.01379
1868.55469,0.01367
1866.79688,0.01391
1865.03906,0.01423
1863.28125,0.01381
1861.52344,0.01249
1859.76563,0.01099
1858.00781,0.01074
1856.25000,0.01220
1854.49219,0.01393
1852.73438,0.01442
1850.97656,0.01375
1849.21875,0.01318
1847.46094,0.01358
1845.70313,0.01410
1843.94531,0.01348
1842.18750,0.01264
1840.42969,0.01310
1838.67188,0.01436
1836.91406,0.01469
1835.15625,0.01363
1833.39844,0.01297
1831.64063,0.01387
1829.88281,0.01528
1828.12500,0.01558
1826.36719,0.01456
1824.60938,0.01276
1822.85156,0.01159
1821.09375,0.01229
1819.33594,0.01372
1817.57813,0.01358
1815.82031,0.01189
1814.06250,0.01096
1812.30469,0.01161
1810.54688,0.01231
1808.78906,0.01193
1807.03125,0.01132
1805.27344,0.01136
1803.51563,0.01198
1801.75781,0.01293
1800.00000,0.01405
1798.24219,0.01497
1796.48438,0.01531
1794.72656,0.01489
1792.96875,0.01380
1791.21094,0.01261
1789.45313,0.01192
1787.69531,0.01164
1785.93750,0.01162
1784.17969,0.01170
1782.42188,0.01163
1780.66406,0.01151
1778.90625,0.01149
1777.14844,0.01136
1775.39063,0.01114
1773.63281,0.01169
1771.87500,0.01383
1770.11719,0.01598
1768.35938,0.01612
1766.60156,0.01450
1764.84375,0.01262
1763.08594,0.01117
1761.32813,0.00977
1759.57031,0.00889
1757.81250,0.00907
1756.05469,0.00975
1754.29688,0.01078
1752.53906,0.01280
1750.78125,0.01568
1749.02344,0.01748
1747.26563,0.01709
1745.50781,0.01590
1743.75000,0.01470
1741.99219,0.01333
1740.23438,0.01189
1738.47656,0.01091
1736.71875,0.01061
1734.96094,0.01070
1733.20313,0.01070
1731.44531,0.01129
1729.68750,0.01298
1727.92969,0.01453
1726.17188,0.01515
1724.41406,0.01553
1722.65625,0.01584
1720.89844,0.01540
1719.14063,0.01462
1717.38281,0.01596
1715.62500,0.02124
1713.86719,0.02684
1712.10938,0.03052
1710.35156,0.03308
1708.59375,0.03579
1706.83594,0.03904
1705.07813,0.04195
1703.32031,0.04323
1701.56250,0.04164
1699.80469,0.03662
1698.04688,0.03214
1696.28906,0.02943
1694.53125,0.02641
1692.77344,0.02382
1691.01563,0.02166
1689.25781,0.01959
1687.50000,0.01826
1685.74219,0.01776
1683.98438,0.01764
1682.22656,0.01741
1680.46875,0.01649
1678.71094,0.01532
1676.95313,0.01476
1675.19531,0.01488
1673.43750,0.01478
1671.67969,0.01375
1669.92188,0.01224
1668.16406,0.01235
1666.40625,0.01425
1664.64844,0.01601
1662.89063,0.01667
1661.13281,0.01591
1659.37500,0.01461
1657.61719,0.01418
1655.85938,0.01489
1654.10156,0.01592
1652.34375,0.01654
1650.58594,0.01677
1648.82813,0.01610
1647.07031,0.01463
1645.31250,0.01447
1643.55469,0.01581
1641.79688,0.01672
1640.03906,0.01662
1638.28125,0.01643
1636.52344,0.01710
1634.76563,0.01647
1633.00781,0.01343
1631.25000,0.01036
1629.49219,0.00842
1627.73438,0.00857
1625.97656,0.01086
1624.21875,0.01323
1622.46094,0.01368
1620.70313,0.01343
1618.94531,0.01419
1617.18750,0.01556
1615.42969,0.01645
1613.67188,0.01659
1611.91406,0.01594
1610.15625,0.01450
1608.39844,0.01326
1606.64063,0.01311
1604.88281,0.01363
1603.12500,0.01403
1601.36719,0.01377
1599.60938,0.01299
1597.85156,0.01291
1596.09375,0.01394
1594.33594,0.01467
1592.57813,0.01461
1590.82031,0.01502
1589.06250,0.01591
1587.30469,0.01570
1585.54688,0.01412
1583.78906,0.01312
1582.03125,0.01402
1580.27344,0.01538
1578.51563,0.01558
1576.75781,0.01545
1575.00000,0.01644
1573.24219,0.01681
1571.48438,0.01547
1569.72656,0.01377
1567.96875,0.01358
1566.21094,0.01405
1564.45313,0.01410
1562.69531,0.01416
1560.93750,0.01433
1559.17969,0.01365
1557.42188,0.01242
1555.66406,0.01265
1553.90625,0.01402
1552.14844,0.01588
1550.39063,0.01698
1548.63281,0.01649
1546.87500,0.01540
1545.11719,0.01492
1543.35938,0.01535
1541.60156,0.01588
1539.84375,0.01493
1538.08594,0.01385
1536.32813,0.01407
1534.57031,0.01454
1532.81250,0.01435
1531.05469,0.01357
1529.29688,0.01253
1527.53906,0.01194
1525.78125,0.01325
1524.02344,0.01564
1522.26563,0.01622
1520.50781,0.01409
1518.75000,0.01206
1516.99219,0.01205
1515.23438,0.01303
1513.47656,0.01298
1511.71875,0.01182
1509.96094,0.01086
1508.20313,0.01135
1506.44531,0.01442
1504.68750,0.01722
1502.92969,0.01750
1501.17188,0.01623
1499.41406,0.01502
1497.65625,0.01498
1495.89844,0.01517
1494.14063,0.01537
1492.38281,0.01622
1490.62500,0.01717
1488.86719,0.01761
1487.10938,0.01807
1485.35156,0.01862
1483.59375,0.01926
1481.83594,0.02084
1480.07813,0.02386
1478.32031,0.02840
1476.56250,0.03554
1474.80469,0.04795
1473.04688,0.06827
1471.28906,0.08839
1469.53125,0.09750
1467.77344,0.09824
1466.01563,0.09279
1464.25781,0.08188
1462.50000,0.07155
1460.74219,0.06485
1458.98438,0.05909
1457.22656,0.05093
1455.46875,0.04410
1453.71094,0.04113
1451.95313,0.03854
1450.19531,0.03549
1448.43750,0.03283
1446.67969,0.03096
1444.92188,0.02997
1443.16406,0.02982
1441.40625,0.02975
1439.64844,0.02898
1437.89063,0.02776
1436.13281,0.02689
1434.37500,0.02650
1432.61719,0.02583
1430.85938,0.02415
1429.10156,0.02202
1427.34375,0.02125
1425.58594,0.02140
1423.82813,0.02076
1422.07031,0.01965
1420.31250,0.01923
1418.55469,0.01962
1416.79688,0.02027
1415.03906,0.02042
1413.28125,0.01994
1411.52344,0.01923
1409.76563,0.01840
1408.00781,0.01740
1406.25000,0.01667
1404.49219,0.01673
1402.73438,0.01725
1400.97656,0.01730
1399.21875,0.01657
1397.46094,0.01605
1395.70313,0.01657
1393.94531,0.01756
1392.18750,0.01809
1390.42969,0.01792
1388.67188,0.01779
1386.91406,0.01892
1385.15625,0.02077
1383.39844,0.02176
1381.64063,0.02213
1379.88281,0.02290
1378.12500,0.02396
1376.36719,0.02438
1374.60938,0.02404
1372.85156,0.02359
1371.09375,0.02316
1369.33594,0.02241
1367.57813,0.02129
1365.82031,0.02020
1364.06250,0.01949
1362.30469,0.01919
1360.54688,0.01928
1358.78906,0.01952
1357.03125,0.01948
1355.27344,0.01921
1353.51563,0.01945
1351.75781,0.02057
1350.00000,0.02192
1348.24219,0.02246
1346.48438,0.02223
1344.72656,0.02234
1342.96875,0.02273
1341.21094,0.02212
1339.45313,0.02069
1337.69531,0.02010
1335.93750,0.02020
1334.17969,0.01989
1332.42188,0.01917
1330.66406,0.01847
1328.90625,0.01806
1327.14844,0.01838
1325.39063,0.01943
1323.63281,0.02003
1321.87500,0.01987
1320.11719,0.02034
1318.35938,0.02161
1316.60156,0.02158
1314.84375,0.01974
1313.08594,0.01840
1311.32813,0.01922
1309.57031,0.02087
1307.81250,0.02161
1306.05469,0.02129
1304.29688,0.02050
1302.53906,0.01994
1300.78125,0.02024
1299.02344,0.02145
1297.26563,0.02319
1295.50781,0.02442
1293.75000,0.02405
1291.99219,0.02283
1290.23438,0.02219
1288.47656,0.02205
1286.71875,0.02181
1284.96094,0.02160
1283.20313,0.02136
1281.44531,0.02099
1279.68750,0.02110
1277.92969,0.02189
1276.17188,0.02245
1274.41406,0.02216
1272.65625,0.02167
1270.89844,0.02186
1269.14063,0.02266
1267.38281,0.02315
1265.62500,0.02267
1263.86719,0.02174
1262.10938,0.02150
1260.35156,0.02210
1258.59375,0.02267
1256.83594,0.02283
1255.07813,0.02285
1253.32031,0.02305
1251.56250,0.02334
1249.80469,0.02347
1248.04688,0.02368
1246.28906,0.02424
1244.53125,0.02481
1242.77344,0.02490
1241.01563,0.02443
1239.25781,0.02371
1237.50000,0.02344
1235.74219,0.02394
1233.98438,0.02447
1232.22656,0.02438
1230.46875,0.02398
1228.71094,0.02381
1226.95313,0.02418
1225.19531,0.02511
1223.43750,0.02577
1221.67969,0.02523
1219.92188,0.02412
1218.16406,0.02374
1216.40625,0.02405
1214.64844,0.02411
1212.89063,0.02364
1211.13281,0.02312
1209.37500,0.02296
1207.61719,0.02281
1205.85938,0.02186
1204.10156,0.02054
1202.34375,0.02018
1200.58594,0.02057
1198.82813,0.02067
1197.07031,0.02050
1195.31250,0.02070
1193.55469,0.02114
1191.79688,0.02109
1190.03906,0.02046
1188.28125,0.01997
1186.52344,0.01978
1184.76563,0.01961
1183.00781,0.01964
1181.25000,0.01986
1179.49219,0.01998
1177.73438,0.01989
1175.97656,0.01987
1174.21875,0.02006
1172.46094,0.01998
1170.70313,0.01940
1168.94531,0.01905
1167.18750,0.01946
1165.42969,0.02023
1163.67188,0.02060
1161.91406,0.02011
1160.15625,0.01913
1158.39844,0.01853
1156.64063,0.01873
1154.88281,0.01950
1153.12500,0.01998
1151.36719,0.01961
1149.60938,0.01894
1147.85156,0.01851
1146.09375,0.01801
1144.33594,0.01726
1142.57813,0.01675
1140.82031,0.01656
1139.06250,0.01623
1137.30469,0.01621
1135.54688,0.01751
1133.78906,0.01955
1132.03125,0.02082
1130.27344,0.02083
1128.51563,0.02021
1126.75781,0.02004
1125.00000,0.02096
1123.24219,0.02210
1121.48438,0.02203
1119.72656,0.02076
1117.96875,0.01949
1116.21094,0.01879
1114.45313,0.01863
1112.69531,0.01939
1110.93750,0.02078
1109.17969,0.02133
1107.42188,0.02073
1105.66406,0.02009
1103.90625,0.01969
1102.14844,0.01944
1100.39063,0.01999
1098.63281,0.02131
1096.87500,0.02257
1095.11719,0.02333
1093.35938,0.02354
1091.60156,0.02343
1089.84375,0.02324
1088.08594,0.02307
1086.32813,0.02340
1084.57031,0.02431
1082.81250,0.02486
1081.05469,0.02436
1079.29688,0.02322
1077.53906,0.02208
1075.78125,0.02109
1074.02344,0.01984
1072.26563,0.01811
1070.50781,0.01694
1068.75000,0.01751
1066.99219,0.01893
1065.23438,0.01984
1063.47656,0.02048
1061.71875,0.02114
1059.96094,0.02110
1058.20313,0.02045
1056.44531,0.02030
1054.68750,0.02079
1052.92969,0.02116
1051.17188,0.02130
1049.41406,0.02168
1047.65625,0.02190
1045.89844,0.02118
1044.14063,0.01999
1042.38281,0.01941
1040.62500,0.01917
1038.86719,0.01833
1037.10938,0.01733
1035.35156,0.01730
1033.59375,0.01836
1031.83594,0.02025
1030.07813,0.02223
1028.32031,0.02265
1026.56250,0.02133
1024.80469,0.02022
1023.04688,0.02035
1021.28906,0.02072
1019.53125,0.01997
1017.77344,0.01811
1016.01563,0.01673
1014.25781,0.01715
1012.50000,0.01889
1010.74219,0.02057
1008.98438,0.02117
1007.22656,0.02098
1005.46875,0.02074
1003.71094,0.02027
1001.95313,0.01949
1000.19531,0.01927
998.43750,0.01976
996.67969,0.02002
994.92188,0.01985
993.16406,0.02017
991.40625,0.02092
989.64844,0.02138
987.89063,0.02176
986.13281,0.02183
984.37500,0.02072
982.61719,0.01899
980.85938,0.01772
979.10156,0.01716
977.34375,0.01762
975.58594,0.01887
973.82813,0.01960
972.07031,0.01967
970.31250,0.02007
968.55469,0.02046
966.79688,0.01975
965.03906,0.01856
963.28125,0.01861
961.52344,0.02042
959.76563,0.02245
958.00781,0.02275
956.25000,0.02150
954.49219,0.02014
952.73438,0.01934
950.97656,0.01892
949.21875,0.01840
947.46094,0.01791
945.70313,0.01831
943.94531,0.01915
942.18750,0.01940
940.42969,0.01986
938.67188,0.02086
936.91406,0.02102
935.15625,0.02003
933.39844,0.01882
931.64063,0.01783
929.88281,0.01757
928.12500,0.01875
926.36719,0.02059
924.60938,0.02118
922.85156,0.02018
921.09375,0.01931
919.33594,0.01963
917.57813,0.02025
915.82031,0.01987
914.06250,0.01898
912.30469,0.01949
910.54688,0.02100
908.78906,0.02095
907.03125,0.01928
905.27344,0.01804
903.51563,0.01733
901.75781,0.01587
900.00000,0.01420
898.24219,0.01452
896.48438,0.01689
894.72656,0.01832
892.96875,0.01777
891.21094,0.01783
889.45313,0.01892
887.69531,0.01836
885.93750,0.01678
884.17969,0.01749
882.42188,0.01984
880.66406,0.02031
878.90625,0.01845
877.14844,0.01720
875.39063,0.01881
873.63281,0.02197
871.87500,0.02320
870.11719,0.02253
868.35938,0.02293
866.60156,0.02302
864.84375,0.01975
863.08594,0.01517
861.32813,0.01275
859.57031,0.01283
857.81250,0.01430
856.05469,0.01630
854.29688,0.01927
852.53906,0.02249
850.78125,0.02296
849.02344,0.02183
847.26563,0.02333
845.50781,0.02544
843.75000,0.02443
841.99219,0.02362
840.23438,0.02495
838.47656,0.02430
836.71875,0.02144
834.96094,0.02065
833.20313,0.02235
831.44531,0.02455
829.68750,0.02645
827.92969,0.02671
826.17188,0.02487
824.41406,0.02207
822.65625,0.02018
820.89844,0.02216
819.14063,0.02697
817.38281,0.02786
815.62500,0.02358
813.86719,0.01909
812.10938,0.01451
810.35156,0.00826
808.59375,0.00639
806.83594,0.01352
805.07813,0.02326
803.32031,0.02798
801.56250,0.02821
799.80469,0.02618
798.04688,0.02328
796.28906,0.02296
794.53125,0.02514
792.77344,0.02785
791.01563,0.03231
789.25781,0.03618
787.50000,0.03619
785.74219,0.03462
783.98438,0.03229
782.22656,0.03036
780.46875,0.02868
778.71094,0.02224
776.95313,0.01475
775.19531,0.01403
773.43750,0.01716
771.67969,0.01751
769.92188,0.01137
768.16406,0.00324
766.40625,0.00404
764.64844,0.01463
762.89063,0.02258
761.13281,0.01906
759.37500,0.01076
757.61719,0.00845
755.85938,0.01084
754.10156,0.00944
752.34375,0.00690
750.58594,0.00673
748.82813,0.00398
747.07031,0.00206
745.31250,0.00676
743.55469,0.00873
741.79688,0.00179
740.03906,-0.00148
738.28125,0.00795
736.52344,0.02524
734.76563,0.04482
733.00781,0.06156
731.25000,0.07148
729.49219,0.07857
727.73438,0.07692
725.97656,0.06233
724.21875,0.06258
722.46094,0.09556
720.70313,0.12028
718.94531,0.10082
717.18750,0.06929
715.42969,0.06279
713.67188,0.07148
711.91406,0.06628
710.15625,0.05538
708.39844,0.06477
706.64063,0.07896
704.88281,0.06252
703.12500,0.03181
701.36719,0.01974
699.60938,0.03067
697.85156,0.04428
696.09375,0.01261
694.33594,-0.05962
692.57813,-0.10623
690.82031,-0.08097
689.06250,-0.01306
687.30469,0.02679
685.54688,0.02975
683.78906,0.01478
682.03125,-0.00219
680.27344,-0.01904
678.51563,-0.01870
