3997.26563,0.00172
3995.50781,-0.00032
3993.75000,-0.00073
3991.99219,0.00001
3990.23438,0.00035
3988.47656,0.00017
3986.71875,0.00030
3984.96094,0.00118
3983.20313,0.00247
3981.44531,0.00294
3979.68750,0.00202
3977.92969,0.00096
3976.17188,0.00089
3974.41406,0.00177
3972.65625,0.00330
3970.89844,0.00482
3969.14063,0.00581
3967.38281,0.00621
3965.62500,0.00502
3963.86719,0.00191
3962.10938,-0.00074
3960.35156,-0.00098
3958.59375,0.00017
3956.83594,0.00122
3955.07813,0.00138
3953.32031,0.00036
3951.56250,-0.00080
3949.80469,-0.00033
3948.04688,0.00199
3946.28906,0.00468
3944.53125,0.00627
3942.77344,0.00543
3941.01563,0.00242
3939.25781,0.00060
3937.50000,0.00122
3935.74219,0.00206
3933.98438,0.00236
3932.22656,0.00296
3930.46875,0.00276
3928.71094,0.00122
3926.95313,-0.00005
3925.19531,0.00006
3923.43750,0.00189
3921.67969,0.00437
3919.92188,0.00585
3918.16406,0.00614
3916.40625,0.00617
3914.64844,0.00597
3912.89063,0.00442
3911.13281,0.00184
3909.37500,0.00071
3907.61719,0.00193
3905.85938,0.00327
3904.10156,0.00292
3902.34375,0.00171
3900.58594,0.00149
3898.82813,0.00250
3897.07031,0.00318
3895.31250,0.00287
3893.55469,0.00289
3891.79688,0.00351
3890.03906,0.00286
3888.28125,0.00137
3886.52344,0.00107
3884.76563,0.00217
3883.00781,0.00372
3881.25000,0.00549
3879.49219,0.00717
3877.73438,0.00759
3875.97656,0.00603
3874.21875,0.00273
3872.46094,0.00012
3870.70313,0.00062
3868.94531,0.00237
3867.18750,0.00180
3865.42969,-0.00048
3863.67188,-0.00205
3861.91406,-0.00254
3860.15625,-0.00237
3858.39844,-0.00026
3856.64063,0.00396
3854.88281,0.00796
3853.12500,0.00842
3851.36719,0.00593
3849.60938,0.00366
3847.85156,0.00194
3846.09375,0.00133
3844.33594,0.00221
3842.57813,0.00352
3840.82031,0.00311
3839.06250,0.00009
3837.30469,-0.00373
3835.54688,-0.00558
3833.78906,-0.00427
3832.03125,-0.00031
3830.27344,0.00307
3828.51563,0.00341
3826.75781,0.00223
3825.00000,0.00197
3823.24219,0.00294
3821.48438,0.00352
3819.72656,0.00318
3817.96875,0.00461
3816.21094,0.00739
3814.45313,0.00750
3812.69531,0.00503
3810.93750,0.00331
3809.17969,0.00334
3807.42188,0.00418
3805.66406,0.00397
3803.90625,0.00207
3802.14844,-0.00008
3800.39063,0.00013
3798.63281,0.00244
3796.87500,0.00393
3795.11719,0.00427
3793.35938,0.00429
3791.60156,0.00389
3789.84375,0.00314
3788.08594,0.00271
3786.32813,0.00226
3784.57031,0.00091
3782.81250,-0.00044
3781.05469,-0.00031
3779.29688,0.00101
3777.53906,0.00231
3775.78125,0.00360
3774.02344,0.00473
3772.26563,0.00462
3770.50781,0.00318
3768.75000,0.00217
3766.99219,0.00259
3765.23438,0.00317
3763.47656,0.00250
3761.71875,0.00037
3759.96094,-0.00206
3758.20313,-0.00235
3756.44531,0.00018
3754.68750,0.00296
3752.92969,0.00397
3751.17188,0.00328
3749.41406,0.00257
3747.65625,0.00187
3745.89844,0.00002
3744.14063,-0.00246
3742.38281,-0.00340
3740.62500,-0.00251
3738.86719,-0.00066
3737.10938,0.00172
3735.35156,0.00293
3733.59375,0.00127
3731.83594,-0.00062
3730.07813,-0.00085
3728.32031,-0.00044
3726.56250,-0.00008
3724.80469,0.00098
3723.04688,0.00320
3721.28906,0.00471
3719.53125,0.00402
3717.77344,0.00271
3716.01563,0.00247
3714.25781,0.00288
3712.50000,0.00297
3710.74219,0.00249
3708.98438,0.00209
3707.22656,0.00234
3705.46875,0.00325
3703.71094,0.00435
3701.95313,0.00430
3700.19531,0.00243
3698.43750,0.00080
3696.67969,0.00088
3694.92188,0.00217
3693.16406,0.00411
3691.40625,0.00649
3689.64844,0.00767
3687.89063,0.00600
3686.13281,0.00374
3684.37500,0.00223
3682.61719,0.00108
3680.85938,0.00057
3679.10156,0.00078
3677.34375,0.00041
3675.58594,-0.00171
3673.82813,-0.00296
3672.07031,-0.00116
3670.31250,0.00226
3668.55469,0.00418
3666.79688,0.00304
3665.03906,0.00116
3663.28125,0.00050
3661.52344,0.00170
3659.76563,0.00326
3658.00781,0.00296
3656.25000,0.00052
3654.49219,-0.00228
3652.73438,-0.00463
3650.97656,-0.00659
3649.21875,-0.00635
3647.46094,-0.00363
3645.70313,-0.00150
3643.94531,-0.00011
3642.18750,0.00044
3640.42969,0.00015
3638.67188,0.00061
3636.91406,0.00207
3635.15625,0.00220
3633.39844,0.00019
3631.64063,-0.00135
3629.88281,0.00000
3628.12500,0.00225
3626.36719,0.00223
3624.60938,0.00285
3622.85156,0.00465
3621.09375,0.00462
3619.33594,0.00140
3617.57813,-0.00192
3615.82031,-0.00283
3614.06250,-0.00160
3612.30469,0.00098
3610.54688,0.00334
3608.78906,0.00441
3607.03125,0.00461
3605.27344,0.00483
3603.51563,0.00472
3601.75781,0.00396
3600.00000,0.00387
3598.24219,0.00512
3596.48438,0.00617
3594.72656,0.00531
3592.96875,0.00279
3591.21094,0.00123
3589.45313,0.00164
3587.69531,0.00193
3585.93750,0.00106
3584.17969,0.00162
3582.42188,0.00362
3580.66406,0.00442
3578.90625,0.00323
3577.14844,0.00209
3575.39063,0.00269
3573.63281,0.00505
3571.87500,0.00771
3570.11719,0.00828
3568.35938,0.00586
3566.60156,0.00265
3564.84375,0.00195
3563.08594,0.00306
3561.32813,0.00415
3559.57031,0.00443
3557.81250,0.00395
3556.05469,0.00330
3554.29688,0.00276
3552.53906,0.00276
3550.78125,0.00333
3549.02344,0.00254
3547.26563,0.00028
3545.50781,0.00021
3543.75000,0.00241
3541.99219,0.00282
3540.23438,0.00210
3538.47656,0.00308
3536.71875,0.00477
3534.96094,0.00406
3533.20313,0.00106
3531.44531,-0.00136
3529.68750,-0.00139
3527.92969,0.00072
3526.17188,0.00330
3524.41406,0.00430
3522.65625,0.00293
3520.89844,0.00076
3519.14063,0.00032
3517.38281,0.00181
3515.62500,0.00287
3513.86719,0.00224
3512.10938,0.00102
3510.35156,0.00025
3508.59375,-0.00030
3506.83594,-0.00062
3505.07813,0.00032
3503.32031,0.00230
3501.56250,0.00342
3499.80469,0.00319
3498.04688,0.00241
3496.28906,0.00184
3494.53125,0.00222
3492.77344,0.00281
3491.01563,0.00173
3489.25781,-0.00070
3487.50000,-0.00144
3485.74219,0.00073
3483.98438,0.00306
3482.22656,0.00378
3480.46875,0.00368
3478.71094,0.00269
3476.95313,0.00117
3475.19531,0.00127
3473.43750,0.00269
3471.67969,0.00292
3469.92188,0.00247
3468.16406,0.00322
3466.40625,0.00376
3464.64844,0.00274
3462.89063,0.00211
3461.13281,0.00229
3459.37500,0.00115
3457.61719,-0.00063
3455.85938,-0.00096
3454.10156,-0.00006
3452.34375,0.00149
3450.58594,0.00294
3448.82813,0.00228
3447.07031,-0.00016
3445.31250,-0.00137
3443.55469,-0.00060
3441.79688,0.00076
3440.03906,0.00204
3438.28125,0.00300
3436.52344,0.00345
3434.76563,0.00310
3433.00781,0.00184
3431.25000,0.00052
3429.49219,0.00039
3427.73438,0.00168
3425.97656,0.00330
3424.21875,0.00381
3422.46094,0.00335
3420.70313,0.00366
3418.94531,0.00485
3417.18750,0.00499
3415.42969,0.00341
3413.67188,0.00116
3411.91406,-0.00026
3410.15625,0.00015
3408.39844,0.00152
3406.64063,0.00178
3404.88281,0.00068
3403.12500,0.00004
3401.36719,0.00063
3399.60938,0.00140
3397.85156,0.00162
3396.09375,0.00145
3394.33594,0.00094
3392.57813,0.00060
3390.82031,0.00058
3389.06250,-0.00012
3387.30469,-0.00089
3385.54688,0.00056
3383.78906,0.00332
3382.03125,0.00351
3380.27344,0.00078
3378.51563,-0.00122
3376.75781,-0.00072
3375.00000,0.00050
3373.24219,0.00075
3371.48438,0.00090
3369.72656,0.00245
3367.96875,0.00414
3366.21094,0.00345
3364.45313,0.00108
3362.69531,-0.00013
3360.93750,0.00043
3359.17969,0.00113
3357.42188,0.00085
3355.66406,-0.00008
3353.90625,-0.00077
3352.14844,-0.00067
3350.39063,0.00012
3348.63281,0.00096
3346.87500,0.00184
3345.11719,0.00322
3343.35938,0.00411
3341.60156,0.00329
3339.84375,0.00191
3338.08594,0.00144
3336.32813,0.00158
3334.57031,0.00177
3332.81250,0.00206
3331.05469,0.00231
3329.29688,0.00245
3327.53906,0.00241
3325.78125,0.00216
3324.02344,0.00192
3322.26563,0.00193
3320.50781,0.00242
3318.75000,0.00284
3316.99219,0.00208
3315.23438,0.00106
3313.47656,0.00119
3311.71875,0.00084
3309.96094,-0.00103
3308.20313,-0.00151
3306.44531,0.00067
3304.68750,0.00270
3302.92969,0.00307
3301.17188,0.00272
3299.41406,0.00213
3297.65625,0.00168
3295.89844,0.00174
3294.14063,0.00156
3292.38281,0.00122
3290.62500,0.00185
3288.86719,0.00270
3287.10938,0.00255
3285.35156,0.00253
3283.59375,0.00334
3281.83594,0.00337
3280.07813,0.00187
3278.32031,0.00062
3276.56250,0.00109
3274.80469,0.00260
3273.04688,0.00375
3271.28906,0.00382
3269.53125,0.00272
3267.77344,0.00092
3266.01563,-0.00065
3264.25781,-0.00101
3262.50000,0.00028
3260.74219,0.00220
3258.98438,0.00322
3257.22656,0.00308
3255.46875,0.00231
3253.71094,0.00117
3251.95313,-0.00015
3250.19531,-0.00082
3248.43750,-0.00001
3246.67969,0.00140
3244.92188,0.00192
3243.16406,0.00168
3241.40625,0.00171
3239.64844,0.00196
3237.89063,0.00179
3236.13281,0.00130
3234.37500,0.00109
3232.61719,0.00099
3230.85938,0.00062
3229.10156,0.00057
3227.34375,0.00130
3225.58594,0.00198
3223.82813,0.00201
3222.07031,0.00174
3220.31250,0.00134
3218.55469,0.00079
3216.79688,0.00055
3215.03906,0.00076
3213.28125,0.00078
3211.52344,0.00030
3209.76563,0.00001
3208.00781,0.00076
3206.25000,0.00198
3204.49219,0.00232
3202.73438,0.00163
3200.97656,0.00049
3199.21875,-0.00098
3197.46094,-0.00203
3195.70313,-0.00172
3193.94531,-0.00106
3192.18750,-0.00169
3190.42969,-0.00276
3188.67188,-0.00211
3186.91406,-0.00027
3185.15625,0.00050
3183.39844,0.00022
3181.64063,0.00009
3179.88281,0.00040
3178.12500,0.00116
3176.36719,0.00203
3174.60938,0.00251
3172.85156,0.00235
3171.09375,0.00132
3169.33594,0.00035
3167.57813,0.00091
3165.82031,0.00222
3164.06250,0.00255
3162.30469,0.00178
3160.54688,0.00077
3158.78906,0.00036
3157.03125,0.00091
3155.27344,0.00154
3153.51563,0.00119
3151.75781,0.00033
3150.00000,0.00009
3148.24219,0.00047
3146.48438,0.00058
3144.72656,-0.00037
3142.96875,-0.00211
3141.21094,-0.00316
3139.45313,-0.00249
3137.69531,-0.00053
3135.93750,0.00106
3134.17969,0.00098
3132.42188,0.00018
3130.66406,0.00011
3128.90625,0.00056
3127.14844,0.00104
3125.39063,0.00132
3123.63281,0.00085
3121.87500,0.00010
3120.11719,0.00055
3118.35938,0.00215
3116.60156,0.00339
3114.84375,0.00383
3113.08594,0.00391
3111.32813,0.00388
3109.57031,0.00412
3107.81250,0.00426
3106.05469,0.00348
3104.29688,0.00252
3102.53906,0.00260
3100.78125,0.00327
3099.02344,0.00331
3097.26563,0.00265
3095.50781,0.00225
3093.75000,0.00254
3091.99219,0.00263
3090.23438,0.00198
3088.47656,0.00157
3086.71875,0.00234
3084.96094,0.00391
3083.20313,0.00521
3081.44531,0.00550
3079.68750,0.00513
3077.92969,0.00475
3076.17188,0.00393
3074.41406,0.00290
3072.65625,0.00343
3070.89844,0.00549
3069.14063,0.00669
3067.38281,0.00585
3065.62500,0.00466
3063.86719,0.00508
3062.10938,0.00678
3060.35156,0.00775
3058.59375,0.00683
3056.83594,0.00474
3055.07813,0.00331
3053.32031,0.00350
3051.56250,0.00456
3049.80469,0.00513
3048.04688,0.00479
3046.28906,0.00387
3044.53125,0.00255
3042.77344,0.00131
3041.01563,0.00100
3039.25781,0.00189
3037.50000,0.00317
3035.74219,0.00383
3033.98438,0.00391
3032.22656,0.00453
3030.46875,0.00638
3028.71094,0.00926
3026.95313,0.01211
3025.19531,0.01301
3023.43750,0.01154
3021.67969,0.00976
3019.92188,0.00921
3018.16406,0.00922
3016.40625,0.00856
3014.64844,0.00699
3012.89063,0.00503
3011.13281,0.00342
3009.37500,0.00255
3007.61719,0.00204
3005.85938,0.00168
3004.10156,0.00206
3002.34375,0.00304
3000.58594,0.00344
2998.82813,0.00286
2997.07031,0.00240
2995.31250,0.00264
2993.55469,0.00276
2991.79688,0.00222
2990.03906,0.00187
2988.28125,0.00251
2986.52344,0.00350
2984.76563,0.00371
2983.00781,0.00324
2981.25000,0.00307
2979.49219,0.00311
2977.73438,0.00274
2975.97656,0.00258
2974.21875,0.00336
2972.46094,0.00445
2970.70313,0.00488
2968.94531,0.00424
2967.18750,0.00299
2965.42969,0.00246
2963.67188,0.00333
2961.91406,0.00438
2960.15625,0.00388
2958.39844,0.00247
2956.64063,0.00233
2954.88281,0.00387
2953.12500,0.00557
2951.36719,0.00634
2949.60938,0.00639
2947.85156,0.00620
2946.09375,0.00593
2944.33594,0.00614
2942.57813,0.00748
2940.82031,0.00918
2939.06250,0.01020
2937.30469,0.01100
2935.54688,0.01212
2933.78906,0.01298
2932.03125,0.01327
2930.27344,0.01339
2928.51563,0.01369
2926.75781,0.01435
2925.00000,0.01545
2923.24219,0.01657
2921.48438,0.01707
2919.72656,0.01673
2917.96875,0.01582
2916.21094,0.01486
2914.45313,0.01429
2912.69531,0.01410
2910.93750,0.01397
2909.17969,0.01339
2907.42188,0.01210
2905.66406,0.01082
2903.90625,0.01024
2902.14844,0.01000
2900.39063,0.00977
2898.63281,0.00985
2896.87500,0.01000
2895.11719,0.00947
2893.35938,0.00826
2891.60156,0.00700
2889.84375,0.00609
2888.08594,0.00586
2886.32813,0.00654
2884.57031,0.00764
2882.81250,0.00838
2881.05469,0.00855
2879.29688,0.00811
2877.53906,0.00684
2875.78125,0.00523
2874.02344,0.00434
2872.26563,0.00435
2870.50781,0.00455
2868.75000,0.00456
2866.99219,0.00453
2865.23438,0.00473
2863.47656,0.00535
2861.71875,0.00632
2859.96094,0.00717
2858.20313,0.00748
2856.44531,0.00738
2854.68750,0.00760
2852.92969,0.00847
2851.17188,0.00951
2849.41406,0.01024
2847.65625,0.01063
2845.89844,0.01056
2844.14063,0.00982
2842.38281,0.00862
2840.62500,0.00733
2838.86719,0.00585
2837.10938,0.00447
2835.35156,0.00387
2833.59375,0.00388
2831.83594,0.00382
2830.07813,0.00355
2828.32031,0.00297
2826.56250,0.00208
2824.80469,0.00178
2823.04688,0.00261
2821.28906,0.00345
2819.53125,0.00303
2817.77344,0.00204
2816.01563,0.00153
2814.25781,0.00120
2812.50000,0.00076
2810.74219,0.00098
2808.98438,0.00215
2807.22656,0.00306
2805.46875,0.00261
2803.71094,0.00173
2801.95313,0.00193
2800.19531,0.00319
2798.43750,0.00449
2796.67969,0.00489
2794.92188,0.00401
2793.16406,0.00271
2791.40625,0.00228
2789.64844,0.00279
2787.89063,0.00342
2786.13281,0.00346
2784.37500,0.00259
2782.61719,0.00117
2780.85938,0.00029
2779.10156,0.00043
2777.34375,0.00088
2775.58594,0.00105
2773.82813,0.00111
2772.07031,0.00139
2770.31250,0.00219
2768.55469,0.00320
2766.79688,0.00362
2765.03906,0.00343
2763.28125,0.00327
2761.52344,0.00336
2759.76563,0.00350
2758.00781,0.00362
2756.25000,0.00355
2754.49219,0.00312
2752.73438,0.00258
2750.97656,0.00215
2749.21875,0.00190
2747.46094,0.00200
2745.70313,0.00240
2743.94531,0.00271
2742.18750,0.00258
2740.42969,0.00203
2738.67188,0.00152
2736.91406,0.00157
2735.15625,0.00190
2733.39844,0.00182
2731.64063,0.00133
2729.88281,0.00105
2728.12500,0.00141
2726.36719,0.00216
2724.60938,0.00235
2722.85156,0.00173
2721.09375,0.00129
2719.33594,0.00179
2717.57813,0.00270
2715.82031,0.00298
2714.06250,0.00252
2712.30469,0.00231
2710.54688,0.00282
2708.78906,0.00321
2707.03125,0.00276
2705.27344,0.00228
2703.51563,0.00281
2701.75781,0.00360
2700.00000,0.00343
2698.24219,0.00265
2696.48438,0.00218
2694.72656,0.00192
2692.96875,0.00167
2691.21094,0.00173
2689.45313,0.00210
2687.69531,0.00224
2685.93750,0.00194
2684.17969,0.00158
2682.42188,0.00162
2680.66406,0.00220
2678.90625,0.00296
2677.14844,0.00352
2675.39063,0.00397
2673.63281,0.00440
2671.87500,0.00434
2670.11719,0.00353
2668.35938,0.00245
2666.60156,0.00193
2664.84375,0.00222
2663.08594,0.00271
2661.32813,0.00279
2659.57031,0.00272
2657.81250,0.00266
2656.05469,0.00225
2654.29688,0.00172
2652.53906,0.00153
2650.78125,0.00170
2649.02344,0.00232
2647.26563,0.00326
2645.50781,0.00362
2643.75000,0.00319
2641.99219,0.00278
2640.23438,0.00266
2638.47656,0.00240
2636.71875,0.00209
2634.96094,0.00230
2633.20313,0.00306
2631.44531,0.00376
2629.68750,0.00374
2627.92969,0.00279
2626.17188,0.00139
2624.41406,0.00027
2622.65625,-0.00020
2620.89844,-0.00019
2619.14063,-0.00000
2617.38281,0.00042
2615.62500,0.00133
2613.86719,0.00234
2612.10938,0.00281
2610.35156,0.00271
2608.59375,0.00229
2606.83594,0.00193
2605.07813,0.00231
2603.32031,0.00315
2601.56250,0.00339
2599.80469,0.00302
2598.04688,0.00295
2596.28906,0.00340
2594.53125,0.00388
2592.77344,0.00391
2591.01563,0.00348
2589.25781,0.00305
2587.50000,0.00260
2585.74219,0.00184
2583.98438,0.00132
2582.22656,0.00132
2580.46875,0.00152
2578.71094,0.00187
2576.95313,0.00195
2575.19531,0.00134
2573.43750,0.00090
2571.67969,0.00114
2569.92188,0.00125
2568.16406,0.00070
2566.40625,-0.00010
2564.64844,-0.00060
2562.89063,-0.00014
2561.13281,0.00142
2559.37500,0.00304
2557.61719,0.00352
2555.85938,0.00276
2554.10156,0.00174
2552.34375,0.00159
2550.58594,0.00242
2548.82813,0.00343
2547.07031,0.00416
2545.31250,0.00420
2543.55469,0.00335
2541.79688,0.00247
2540.03906,0.00223
2538.28125,0.00221
2536.52344,0.00215
2534.76563,0.00197
2533.00781,0.00154
2531.25000,0.00153
2529.49219,0.00251
2527.73438,0.00344
2525.97656,0.00326
2524.21875,0.00253
2522.46094,0.00175
2520.70313,0.00071
2518.94531,-0.00005
2517.18750,-0.00015
2515.42969,-0.00023
2513.67188,-0.00021
2511.91406,0.00077
2510.15625,0.00212
2508.39844,0.00230
2506.64063,0.00160
2504.88281,0.00158
2503.12500,0.00233
2501.36719,0.00281
2499.60938,0.00273
2497.85156,0.00227
2496.09375,0.00156
2494.33594,0.00114
2492.57813,0.00146
2490.82031,0.00210
2489.06250,0.00230
2487.30469,0.00187
2485.54688,0.00116
2483.78906,0.00067
2482.03125,0.00051
2480.27344,0.00039
2478.51563,0.00035
2476.75781,0.00077
2475.00000,0.00159
2473.24219,0.00214
2471.48438,0.00210
2469.72656,0.00181
2467.96875,0.00161
2466.21094,0.00150
2464.45313,0.00163
2462.69531,0.00238
2460.93750,0.00348
2459.17969,0.00382
2457.42188,0.00309
2455.66406,0.00226
2453.90625,0.00216
2452.14844,0.00284
2450.39063,0.00372
2448.63281,0.00379
2446.87500,0.00280
2445.11719,0.00168
2443.35938,0.00111
2441.60156,0.00074
2439.84375,0.00028
2438.08594,0.00016
2436.32813,0.00055
2434.57031,0.00077
2432.81250,0.00052
2431.05469,0.00017
2429.29688,-0.00009
2427.53906,-0.00033
2425.78125,-0.00042
2424.02344,-0.00013
2422.26563,0.00058
2420.50781,0.00164
2418.75000,0.00262
2416.99219,0.00298
2415.23438,0.00303
2413.47656,0.00324
2411.71875,0.00308
2409.96094,0.00212
2408.20313,0.00101
2406.44531,0.00051
2404.68750,0.00069
2402.92969,0.00114
2401.17188,0.00152
2399.41406,0.00179
2397.65625,0.00174
2395.89844,0.00138
2394.14063,0.00124
2392.38281,0.00120
2390.62500,0.00074
2388.86719,0.00015
2387.10938,0.00007
2385.35156,0.00032
2383.59375,0.00047
2381.83594,0.00085
2380.07813,0.00213
2378.32031,0.00399
2376.56250,0.00551
2374.80469,0.00631
2373.04688,0.00662
2371.28906,0.00692
2369.53125,0.00743
2367.77344,0.00853
2366.01563,0.01009
2364.25781,0.00860
2362.50000,0.00346
2360.74219,0.00244
2358.98438,0.00741
2357.22656,0.01000
2355.46875,0.00758
2353.71094,0.00450
2351.95313,0.00331
2350.19531,0.00378
2348.43750,0.00469
2346.67969,0.00487
2344.92188,0.00430
2343.16406,0.00437
2341.40625,0.00515
2339.64844,0.00613
2337.89063,0.00820
2336.13281,0.01002
2334.37500,0.00903
2332.61719,0.00630
2330.85938,0.00442
2329.10156,0.00372
2327.34375,0.00344
2325.58594,0.00365
2323.82813,0.00435
2322.07031,0.00453
2320.31250,0.00354
2318.55469,0.00204
2316.79688,0.00083
2315.03906,0.00032
2313.28125,0.00075
2311.52344,0.00186
2309.76563,0.00280
2308.00781,0.00277
2306.25000,0.00222
2304.49219,0.00241
2302.73438,0.00301
2300.97656,0.00266
2299.21875,0.00186
2297.46094,0.00184
2295.70313,0.00193
2293.94531,0.00115
2292.18750,0.00032
2290.42969,0.00030
2288.67188,0.00068
2286.91406,0.00110
2285.15625,0.00125
2283.39844,0.00082
2281.64063,0.00058
2279.88281,0.00136
2278.12500,0.00264
2276.36719,0.00338
2274.60938,0.00318
2272.85156,0.00253
2271.09375,0.00206
2269.33594,0.00177
2267.57813,0.00144
2265.82031,0.00132
2264.06250,0.00180
2262.30469,0.00241
2260.54688,0.00219
2258.78906,0.00158
2257.03125,0.00161
2255.27344,0.00198
2253.51563,0.00234
2251.75781,0.00315
2250.00000,0.00393
2248.24219,0.00358
2246.48438,0.00264
2244.72656,0.00247
2242.96875,0.00289
2241.21094,0.00290
2239.45313,0.00236
2237.69531,0.00181
2235.93750,0.00163
2234.17969,0.00170
2232.42188,0.00186
2230.66406,0.00209
2228.90625,0.00206
2227.14844,0.00149
2225.39063,0.00086
2223.63281,0.00079
2221.87500,0.00112
2220.11719,0.00129
2218.35938,0.00110
2216.60156,0.00060
2214.84375,-0.00001
2213.08594,-0.00030
2211.32813,-0.00014
2209.57031,0.00024
2207.81250,0.00088
2206.05469,0.00149
2204.29688,0.00175
2202.53906,0.00223
2200.78125,0.00298
2199.02344,0.00308
2197.26563,0.00258
2195.50781,0.00235
2193.75000,0.00248
2191.99219,0.00259
2190.23438,0.00255
2188.47656,0.00255
2186.71875,0.00277
2184.96094,0.00281
2183.20313,0.00220
2181.44531,0.00127
2179.68750,0.00059
2177.92969,0.00066
2176.17188,0.00195
2174.41406,0.00380
2172.65625,0.00460
2170.89844,0.00390
2169.14063,0.00265
2167.38281,0.00174
2165.62500,0.00141
2163.86719,0.00151
2162.10938,0.00192
2160.35156,0.00259
2158.59375,0.00315
2156.83594,0.00317
2155.07813,0.00266
2153.32031,0.00198
2151.56250,0.00160
2149.80469,0.00151
2148.04688,0.00128
2146.28906,0.00103
2144.53125,0.00121
2142.77344,0.00154
2141.01563,0.00156
2139.25781,0.00143
2137.50000,0.00155
2135.74219,0.00201
2133.98438,0.00245
2132.22656,0.00262
2130.46875,0.00268
2128.71094,0.00281
2126.95313,0.00296
2125.19531,0.00288
2123.43750,0.00239
2121.67969,0.00177
2119.92188,0.00155
2118.16406,0.00171
2116.40625,0.00204
2114.64844,0.00278
2112.89063,0.00377
2111.13281,0.00399
2109.37500,0.00308
2107.61719,0.00211
2105.85938,0.00194
2104.10156,0.00225
2102.34375,0.00254
2100.58594,0.00243
2098.82813,0.00171
2097.07031,0.00119
2095.31250,0.00182
2093.55469,0.00295
2091.79688,0.00316
2090.03906,0.00245
2088.28125,0.00229
2086.52344,0.00313
2084.76563,0.00362
2083.00781,0.00305
2081.25000,0.00243
2079.49219,0.00249
2077.73438,0.00299
2075.97656,0.00335
2074.21875,0.00322
2072.46094,0.00300
2070.70313,0.00312
2068.94531,0.00297
2067.18750,0.00225
2065.42969,0.00190
2063.67188,0.00231
2061.91406,0.00277
2060.15625,0.00301
2058.39844,0.00303
2056.64063,0.00280
2054.88281,0.00254
2053.12500,0.00230
2051.36719,0.00203
2049.60938,0.00189
2047.85156,0.00199
2046.09375,0.00218
2044.33594,0.00231
2042.57813,0.00252
2040.82031,0.00300
2039.06250,0.00334
2037.30469,0.00307
2035.54688,0.00249
2033.78906,0.00209
2032.03125,0.00193
2030.27344,0.00185
2028.51563,0.00172
2026.75781,0.00172
2025.00000,0.00233
2023.24219,0.00372
2021.48438,0.00511
2019.72656,0.00546
2017.96875,0.00484
2016.21094,0.00424
2014.45313,0.00402
2012.69531,0.00391
2010.93750,0.00395
2009.17969,0.00402
2007.42188,0.00373
2005.66406,0.00343
2003.90625,0.00352
2002.14844,0.00358
2000.39063,0.00321
1998.63281,0.00257
1996.87500,0.00195
1995.11719,0.00174
1993.35938,0.00237
1991.60156,0.00386
1989.84375,0.00527
1988.08594,0.00564
1986.32813,0.00514
1984.57031,0.00456
1982.81250,0.00437
1981.05469,0.00435
1979.29688,0.00403
1977.53906,0.00337
1975.78125,0.00296
1974.02344,0.00320
1972.26563,0.00363
1970.50781,0.00358
1968.75000,0.00311
1966.99219,0.00285
1965.23438,0.00289
1963.47656,0.00285
1961.71875,0.00298
1959.96094,0.00349
1958.20313,0.00387
1956.44531,0.00405
1954.68750,0.00430
1952.92969,0.00439
1951.17188,0.00437
1949.41406,0.00457
1947.65625,0.00472
1945.89844,0.00451
1944.14063,0.00432
1942.38281,0.00436
1940.62500,0.00437
1938.86719,0.00426
1937.10938,0.00407
1935.35156,0.00363
1933.59375,0.00315
1931.83594,0.00293
1930.07813,0.00281
1928.32031,0.00251
1926.56250,0.00229
1924.80469,0.00245
1923.04688,0.00267
1921.28906,0.00255
1919.53125,0.00228
1917.77344,0.00221
1916.01563,0.00260
1914.25781,0.00327
1912.50000,0.00364
1910.74219,0.00350
1908.98438,0.00344
1907.22656,0.00385
1905.46875,0.00422
1903.71094,0.00400
1901.95313,0.00337
1900.19531,0.00269
1898.43750,0.00222
1896.67969,0.00233
1894.92188,0.00311
1893.16406,0.00381
1891.40625,0.00363
1889.64844,0.00274
1887.89063,0.00237
1886.13281,0.00295
1884.37500,0.00353
1882.61719,0.00352
1880.85938,0.00355
1879.10156,0.00405
1877.34375,0.00432
1875.58594,0.00416
1873.82813,0.00443
1872.07031,0.00527
1870.31250,0.00570
1868.55469,0.00507
1866.79688,0.00446
1865.03906,0.00499
1863.28125,0.00589
1861.52344,0.00586
1859.76563,0.00485
1858.00781,0.00411
1856.25000,0.00425
1854.49219,0.00459
1852.73438,0.00462
1850.97656,0.00428
1849.21875,0.00368
1847.46094,0.00340
1845.70313,0.00380
1843.94531,0.00444
1842.18750,0.00492
1840.42969,0.00513
1838.67188,0.00478
1836.91406,0.00407
1835.15625,0.00357
1833.39844,0.00330
1831.64063,0.00277
1829.88281,0.00197
1828.12500,0.00156
1826.36719,0.00192
1824.60938,0.00287
1822.85156,0.00391
1821.09375,0.00453
1819.33594,0.00446
1817.57813,0.00378
1815.82031,0.00308
1814.06250,0.00290
1812.30469,0.00306
1810.54688,0.00344
1808.78906,0.00409
1807.03125,0.00464
1805.27344,0.00488
1803.51563,0.00489
1801.75781,0.00456
1800.00000,0.00394
1798.24219,0.00353
1796.48438,0.00355
1794.72656,0.00369
1792.96875,0.00339
1791.21094,0.00277
1789.45313,0.00259
1787.69531,0.00271
1785.93750,0.00290
1784.17969,0.00341
1782.42188,0.00415
1780.66406,0.00452
1778.90625,0.00432
1777.14844,0.00407
1775.39063,0.00434
1773.63281,0.00505
1771.87500,0.00535
1770.11719,0.00495
1768.35938,0.00429
1766.60156,0.00362
1764.84375,0.00352
1763.08594,0.00415
1761.32813,0.00474
1759.57031,0.00460
1757.81250,0.00413
1756.05469,0.00390
1754.29688,0.00432
1752.53906,0.00550
1750.78125,0.00671
1749.02344,0.00639
1747.26563,0.00498
1745.50781,0.00417
1743.75000,0.00412
1741.99219,0.00428
1740.23438,0.00460
1738.47656,0.00516
1736.71875,0.00554
1734.96094,0.00547
1733.20313,0.00525
1731.44531,0.00520
1729.68750,0.00513
1727.92969,0.00513
1726.17188,0.00529
1724.41406,0.00526
1722.65625,0.00488
1720.89844,0.00465
1719.14063,0.00482
1717.38281,0.00475
1715.62500,0.00398
1713.86719,0.00370
1712.10938,0.00416
1710.35156,0.00469
1708.59375,0.00506
1706.83594,0.00548
1705.07813,0.00589
1703.32031,0.00587
1701.56250,0.00511
1699.80469,0.00380
1698.04688,0.00315
1696.28906,0.00339
1694.53125,0.00357
1692.77344,0.00316
1691.01563,0.00259
1689.25781,0.00267
1687.50000,0.00346
1685.74219,0.00438
1683.98438,0.00535
1682.22656,0.00578
1680.46875,0.00538
1678.71094,0.00461
1676.95313,0.00355
1675.19531,0.00246
1673.43750,0.00210
1671.67969,0.00278
1669.92188,0.00430
1668.16406,0.00547
1666.40625,0.00539
1664.64844,0.00482
1662.89063,0.00441
1661.13281,0.00419
1659.37500,0.00396
1657.61719,0.00376
1655.85938,0.00369
1654.10156,0.00360
1652.34375,0.00343
1650.58594,0.00354
1648.82813,0.00344
1647.07031,0.00298
1645.31250,0.00332
1643.55469,0.00449
1641.79688,0.00518
1640.03906,0.00509
1638.28125,0.00444
1636.52344,0.00331
1634.76563,0.00255
1633.00781,0.00292
1631.25000,0.00358
1629.49219,0.00410
1627.73438,0.00426
1625.97656,0.00424
1624.21875,0.00437
1622.46094,0.00442
1620.70313,0.00439
1618.94531,0.00481
1617.18750,0.00548
1615.42969,0.00547
1613.67188,0.00503
1611.91406,0.00499
1610.15625,0.00538
1608.39844,0.00618
1606.64063,0.00783
1604.88281,0.01026
1603.12500,0.01236
1601.36719,0.01331
1599.60938,0.01322
1597.85156,0.01201
1596.09375,0.00999
1594.33594,0.00850
1592.57813,0.00794
1590.82031,0.00729
1589.06250,0.00653
1587.30469,0.00670
1585.54688,0.00765
1583.78906,0.00806
1582.03125,0.00750
1580.27344,0.00672
1578.51563,0.00623
1576.75781,0.00574
1575.00000,0.00528
1573.24219,0.00538
1571.48438,0.00568
1569.72656,0.00515
1567.96875,0.00372
1566.21094,0.00282
1564.45313,0.00302
1562.69531,0.00399
1560.93750,0.00520
1559.17969,0.00647
1557.42188,0.00702
1555.66406,0.00660
1553.90625,0.00584
1552.14844,0.00523
1550.39063,0.00489
1548.63281,0.00446
1546.87500,0.00400
1545.11719,0.00419
1543.35938,0.00505
1541.60156,0.00481
1539.84375,0.00285
1538.08594,0.00261
1536.32813,0.00354
1534.57031,0.00420
1532.81250,0.00471
1531.05469,0.00524
1529.29688,0.00496
1527.53906,0.00325
1525.78125,0.00122
1524.02344,0.00094
1522.26563,0.00239
1520.50781,0.00365
1518.75000,0.00369
1516.99219,0.00329
1515.23438,0.00303
1513.47656,0.00308
1511.71875,0.00335
1509.96094,0.00367
1508.20313,0.00371
1506.44531,0.00363
1504.68750,0.00458
1502.92969,0.00586
1501.17188,0.00723
1499.41406,0.00954
1497.65625,0.01449
1495.89844,0.02253
1494.14063,0.02997
1492.38281,0.03342
1490.62500,0.03068
1488.86719,0.02201
1487.10938,0.01432
1485.35156,0.01084
1483.59375,0.00950
1481.83594,0.00880
1480.07813,0.00818
1478.32031,0.00765
1476.56250,0.00740
1474.80469,0.00746
1473.04688,0.00764
1471.28906,0.00755
1469.53125,0.00705
1467.77344,0.00632
1466.01563,0.00572
1464.25781,0.00603
1462.50000,0.00741
1460.74219,0.00900
1458.98438,0.01110
1457.22656,0.01709
1455.46875,0.02668
1453.71094,0.03285
1451.95313,0.03460
1450.19531,0.03282
1448.43750,0.02853
1446.67969,0.02359
1444.92188,0.01987
1443.16406,0.01739
1441.40625,0.01542
1439.64844,0.01412
1437.89063,0.01360
1436.13281,0.01281
1434.37500,0.01116
1432.61719,0.00962
1430.85938,0.00831
1429.10156,0.00712
1427.34375,0.00658
1425.58594,0.00659
1423.82813,0.00652
1422.07031,0.00642
1420.31250,0.00667
1418.55469,0.00720
1416.79688,0.00769
1415.03906,0.00791
1413.28125,0.00784
1411.52344,0.00752
1409.76563,0.00702
1408.00781,0.00636
1406.25000,0.00556
1404.49219,0.00480
1402.73438,0.00471
1400.97656,0.00526
1399.21875,0.00557
1397.46094,0.00556
1395.70313,0.00607
1393.94531,0.00665
1392.18750,0.00669
1390.42969,0.00695
1388.67188,0.00797
1386.91406,0.00878
1385.15625,0.00834
1383.39844,0.00763
1381.64063,0.00794
1379.88281,0.00900
1378.12500,0.00953
1376.36719,0.00919
1374.60938,0.00893
1372.85156,0.00929
1371.09375,0.00956
1369.33594,0.00962
1367.57813,0.00996
1365.82031,0.01019
1364.06250,0.00984
1362.30469,0.00956
1360.54688,0.00986
1358.78906,0.01015
1357.03125,0.00999
1355.27344,0.00937
1353.51563,0.00847
1351.75781,0.00768
1350.00000,0.00727
1348.24219,0.00712
1346.48438,0.00698
1344.72656,0.00715
1342.96875,0.00793
1341.21094,0.00875
1339.45313,0.00892
1337.69531,0.00888
1335.93750,0.00925
1334.17969,0.00969
1332.42188,0.00963
1330.66406,0.00904
1328.90625,0.00849
1327.14844,0.00840
1325.39063,0.00851
1323.63281,0.00840
1321.87500,0.00820
1320.11719,0.00843
1318.35938,0.00910
1316.60156,0.00950
1314.84375,0.00920
1313.08594,0.00870
1311.32813,0.00856
1309.57031,0.00883
1307.81250,0.00933
1306.05469,0.00973
1304.29688,0.00968
1302.53906,0.00942
1300.78125,0.00920
1299.02344,0.00866
1297.26563,0.00792
1295.50781,0.00773
1293.75000,0.00799
1291.99219,0.00806
1290.23438,0.00810
1288.47656,0.00844
1286.71875,0.00887
1284.96094,0.00899
1283.20313,0.00862
1281.44531,0.00809
1279.68750,0.00794
1277.92969,0.00797
1276.17188,0.00757
1274.41406,0.00675
1272.65625,0.00610
1270.89844,0.00603
1269.14063,0.00645
1267.38281,0.00685
1265.62500,0.00694
1263.86719,0.00692
1262.10938,0.00716
1260.35156,0.00753
1258.59375,0.00748
1256.83594,0.00693
1255.07813,0.00634
1253.32031,0.00593
1251.56250,0.00575
1249.80469,0.00593
1248.04688,0.00643
1246.28906,0.00684
1244.53125,0.00687
1242.77344,0.00650
1241.01563,0.00599
1239.25781,0.00585
1237.50000,0.00625
1235.74219,0.00671
1233.98438,0.00677
1232.22656,0.00635
1230.46875,0.00568
1228.71094,0.00529
1226.95313,0.00550
1225.19531,0.00597
1223.43750,0.00628
1221.67969,0.00639
1219.92188,0.00648
1218.16406,0.00649
1216.40625,0.00630
1214.64844,0.00618
1212.89063,0.00644
1211.13281,0.00695
1209.37500,0.00736
1207.61719,0.00749
1205.85938,0.00747
1204.10156,0.00750
1202.34375,0.00770
1200.58594,0.00809
1198.82813,0.00865
1197.07031,0.00894
1195.31250,0.00855
1193.55469,0.00797
1191.79688,0.00783
1190.03906,0.00796
1188.28125,0.00808
1186.52344,0.00826
1184.76563,0.00853
1183.00781,0.00899
1181.25000,0.00972
1179.49219,0.01030
1177.73438,0.00990
1175.97656,0.00864
1174.21875,0.00782
1172.46094,0.00801
1170.70313,0.00827
1168.94531,0.00790
1167.18750,0.00743
1165.42969,0.00747
1163.67188,0.00768
1161.91406,0.00759
1160.15625,0.00751
1158.39844,0.00793
1156.64063,0.00878
1154.88281,0.00946
1153.12500,0.00929
1151.36719,0.00839
1149.60938,0.00741
1147.85156,0.00681
1146.09375,0.00666
1144.33594,0.00694
1142.57813,0.00751
1140.82031,0.00779
1139.06250,0.00735
1137.30469,0.00666
1135.54688,0.00627
1133.78906,0.00615
1132.03125,0.00632
1130.27344,0.00649
1128.51563,0.00615
1126.75781,0.00576
1125.00000,0.00616
1123.24219,0.00707
1121.48438,0.00761
1119.72656,0.00737
1117.96875,0.00668
1116.21094,0.00645
1114.45313,0.00688
1112.69531,0.00718
1110.93750,0.00714
1109.17969,0.00707
1107.42188,0.00674
1105.66406,0.00621
1103.90625,0.00607
1102.14844,0.00636
1100.39063,0.00682
1098.63281,0.00714
1096.87500,0.00706
1095.11719,0.00679
1093.35938,0.00666
1091.60156,0.00656
1089.84375,0.00658
1088.08594,0.00717
1086.32813,0.00786
1084.57031,0.00771
1082.81250,0.00735
1081.05469,0.00783
1079.29688,0.00872
1077.53906,0.00935
1075.78125,0.01014
1074.02344,0.01135
1072.26563,0.01244
1070.50781,0.01290
1068.75000,0.01271
1066.99219,0.01214
1065.23438,0.01163
1063.47656,0.01129
1061.71875,0.01082
1059.96094,0.01029
1058.20313,0.01000
1056.44531,0.00975
1054.68750,0.00935
1052.92969,0.00895
1051.17188,0.00866
1049.41406,0.00848
1047.65625,0.00842
1045.89844,0.00849
1044.14063,0.00839
1042.38281,0.00801
1040.62500,0.00775
1038.86719,0.00768
1037.10938,0.00777
1035.35156,0.00894
1033.59375,0.01207
1031.83594,0.01632
1030.07813,0.01999
1028.32031,0.02191
1026.56250,0.02130
1024.80469,0.01823
1023.04688,0.01478
1021.28906,0.01330
1019.53125,0.01340
1017.77344,0.01317
1016.01563,0.01226
1014.25781,0.01111
1012.50000,0.00966
1010.74219,0.00859
1008.98438,0.00906
1007.22656,0.01055
1005.46875,0.01142
1003.71094,0.01111
1001.95313,0.01027
1000.19531,0.00932
998.43750,0.00817
996.67969,0.00720
994.92188,0.00693
993.16406,0.00691
991.40625,0.00668
989.64844,0.00660
987.89063,0.00676
986.13281,0.00705
984.37500,0.00799
982.61719,0.00964
980.85938,0.01078
979.10156,0.01050
977.34375,0.00942
975.58594,0.00873
973.82813,0.00864
972.07031,0.00882
970.31250,0.00948
968.55469,0.01065
966.79688,0.01146
965.03906,0.01135
963.28125,0.01070
961.52344,0.00996
959.76563,0.00913
958.00781,0.00806
956.25000,0.00719
954.49219,0.00722
952.73438,0.00802
950.97656,0.00869
949.21875,0.00889
947.46094,0.00905
945.70313,0.00942
943.94531,0.00945
942.18750,0.00877
940.42969,0.00818
938.67188,0.00846
936.91406,0.00890
935.15625,0.00882
933.39844,0.00872
931.64063,0.00882
929.88281,0.00828
928.12500,0.00695
926.36719,0.00582
924.60938,0.00537
922.85156,0.00534
921.09375,0.00558
919.33594,0.00590
917.57813,0.00673
915.82031,0.00862
914.06250,0.01021
912.30469,0.01026
910.54688,0.01013
908.78906,0.01122
907.03125,0.01268
905.27344,0.01300
903.51563,0.01219
901.75781,0.01109
900.00000,0.01001
898.24219,0.00921
896.48438,0.00881
894.72656,0.00778
892.96875,0.00571
891.21094,0.00419
889.45313,0.00431
887.69531,0.00495
885.93750,0.00503
884.17969,0.00560
882.42188,0.00736
880.66406,0.00853
878.90625,0.00820
877.14844,0.00730
875.39063,0.00581
873.63281,0.00427
871.87500,0.00405
870.11719,0.00436
868.35938,0.00487
866.60156,0.00714
864.84375,0.00975
863.08594,0.00965
861.32813,0.00729
859.57031,0.00540
857.81250,0.00531
856.05469,0.00603
854.29688,0.00650
852.53906,0.00696
850.78125,0.00693
849.02344,0.00611
847.26563,0.00640
845.50781,0.00843
843.75000,0.01040
841.99219,0.01109
840.23438,0.00984
838.47656,0.00700
836.71875,0.00490
834.96094,0.00384
833.20313,0.00199
831.44531,0.00061
829.68750,0.00193
827.92969,0.00465
826.17188,0.00610
824.41406,0.00532
822.65625,0.00391
820.89844,0.00426
819.14063,0.00612
817.38281,0.00788
815.62500,0.00922
813.86719,0.00978
812.10938,0.00913
810.35156,0.00876
808.59375,0.00897
806.83594,0.00732
805.07813,0.00443
803.32031,0.00375
801.56250,0.00598
799.80469,0.01023
798.04688,0.01544
796.28906,0.01793
794.53125,0.01521
792.77344,0.01028
791.01563,0.00745
789.25781,0.00634
787.50000,0.00481
785.74219,0.00448
783.98438,0.00760
782.22656,0.01382
780.46875,0.02199
778.71094,0.02826
776.95313,0.02848
775.19531,0.02524
773.43750,0.02480
771.67969,0.02929
769.92188,0.03606
768.16406,0.04163
766.40625,0.04527
764.64844,0.04758
762.89063,0.04857
761.13281,0.05039
759.37500,0.05477
757.61719,0.05759
755.85938,0.05753
754.10156,0.06166
752.34375,0.07097
750.58594,0.07795
748.82813,0.07500
747.07031,0.05910
745.31250,0.03936
743.55469,0.03153
741.79688,0.03560
740.03906,0.03651
738.28125,0.02795
736.52344,0.01866
734.76563,0.01824
733.00781,0.02428
731.25000,0.02645
729.49219,0.02297
727.73438,0.01984
725.97656,0.01672
724.21875,0.01349
722.46094,0.01104
720.70313,-0.00034
718.94531,-0.02164
717.18750,-0.03407
715.42969,-0.02791
713.67188,-0.01065
711.91406,0.00947
710.15625,0.02479
708.39844,0.03059
706.64063,0.03615
704.88281,0.06240
703.12500,0.10994
701.36719,0.15572
699.60938,0.19897
697.85156,0.24272
696.09375,0.25297
694.33594,0.21193
692.57813,0.15671
690.82031,0.11698
689.06250,0.08251
687.30469,0.03817
685.54688,-0.00252
683.78906,-0.01490
682.03125,0.00175
680.27344,0.03279
678.51563,0.05605
